20.002711270 80.0
20.036133807 86.0
20.069556344 90.0
20.102978882 90.0
20.136401419 97.0
20.169823956 94.0
20.203246493 91.0
20.236669031 83.0
20.270091568 95.0
20.303514105 77.0
20.336936642 106.0
20.370359180 88.0
20.403781717 89.0
20.437204254 88.0
20.470626791 69.0
20.504049329 79.0
20.537471866 97.0
20.570894403 68.0
20.604316940 83.0
20.637739478 80.0
20.671162015 65.0
20.704584552 80.0
20.738007089 90.0
20.771429627 86.0
20.804852164 81.0
20.838274701 89.0
20.871697238 69.0
20.905119776 82.0
20.938542313 79.0
20.971964850 83.0
21.005387387 73.0
21.038809925 79.0
21.072232462 83.0
21.105654999 85.0
21.139077536 83.0
21.172500073 77.0
21.205922611 92.0
21.239345148 92.0
21.272767685 62.0
21.306190222 93.0
21.339612760 83.0
21.373035297 80.0
21.406457834 75.0
21.439880371 67.0
21.473302909 88.0
21.506725446 78.0
21.540147983 86.0
21.573570520 86.0
21.606993058 80.0
21.640415595 76.0
21.673838132 68.0
21.707260669 79.0
21.740683207 77.0
21.774105744 76.0
21.807528281 78.0
21.840950818 76.0
21.874373356 97.0
21.907795893 57.0
21.941218430 66.0
21.974640967 85.0
22.008063505 78.0
22.041486042 69.0
22.074908579 73.0
22.108331116 79.0
22.141753653 88.0
22.175176191 82.0
22.208598728 65.0
22.242021265 79.0
22.275443802 77.0
22.308866340 78.0
22.342288877 64.0
22.375711414 88.0
22.409133951 57.0
22.442556489 73.0
22.475979026 66.0
22.509401563 59.0
22.542824100 82.0
22.576246638 68.0
22.609669175 77.0
22.643091712 81.0
22.676514249 59.0
22.709936787 85.0
22.743359324 47.0
22.776781861 59.0
22.810204398 67.0
22.843626936 75.0
22.877049473 58.0
22.910472010 63.0
22.943894547 57.0
22.977317085 50.0
23.010739622 66.0
23.044162159 61.0
23.077584696 67.0
23.111007234 77.0
23.144429771 71.0
23.177852308 67.0
23.211274845 81.0
23.244697382 78.0
23.278119920 69.0
23.311542457 74.0
23.344964994 73.0
23.378387531 53.0
23.411810069 72.0
23.445232606 58.0
23.478655143 68.0
23.512077680 60.0
23.545500218 62.0
23.578922755 58.0
23.612345292 66.0
23.645767829 60.0
23.679190367 65.0
23.712612904 63.0
23.746035441 76.0
23.779457978 61.0
23.812880516 68.0
23.846303053 74.0
23.879725590 64.0
23.913148127 63.0
23.946570665 69.0
23.979993202 83.0
24.013415739 75.0
24.046838276 51.0
24.080260814 61.0
24.113683351 67.0
24.147105888 69.0
24.180528425 58.0
24.213950962 57.0
24.247373500 61.0
24.280796037 82.0
24.314218574 60.0
24.347641111 69.0
24.381063649 75.0
24.414486186 65.0
24.447908723 78.0
24.481331260 67.0
24.514753798 47.0
24.548176335 45.0
24.581598872 62.0
24.615021409 45.0
24.648443947 68.0
24.681866484 55.0
24.715289021 62.0
24.748711558 54.0
24.782134096 69.0
24.815556633 67.0
24.848979170 58.0
24.882401707 55.0
24.915824245 53.0
24.949246782 68.0
24.982669319 59.0
25.016091856 61.0
25.049514394 50.0
25.082936931 50.0
25.116359468 48.0
25.149782005 59.0
25.183204543 61.0
25.216627080 64.0
25.250049617 71.0
25.283472154 68.0
25.316894691 62.0
25.350317229 54.0
25.383739766 57.0
25.417162303 67.0
25.450584840 76.0
25.484007378 62.0
25.517429915 57.0
25.550852452 51.0
25.584274989 52.0
25.617697527 53.0
25.651120064 46.0
25.684542601 49.0
25.717965138 53.0
25.751387676 64.0
25.784810213 51.0
25.818232750 73.0
25.851655287 60.0
25.885077825 50.0
25.918500362 54.0
25.951922899 57.0
25.985345436 72.0
26.018767974 61.0
26.052190511 60.0
26.085613048 65.0
26.119035585 48.0
26.152458123 65.0
26.185880660 67.0
26.219303197 49.0
26.252725734 58.0
26.286148271 65.0
26.319570809 66.0
26.352993346 44.0
26.386415883 44.0
26.419838420 45.0
26.453260958 53.0
26.486683495 58.0
26.520106032 52.0
26.553528569 52.0
26.586951107 65.0
26.620373644 66.0
26.653796181 54.0
26.687218718 59.0
26.720641256 36.0
26.754063793 53.0
26.787486330 55.0
26.820908867 48.0
26.854331405 47.0
26.887753942 64.0
26.921176479 50.0
26.954599016 54.0
26.988021554 65.0
27.021444091 54.0
27.054866628 71.0
27.088289165 55.0
27.121711703 66.0
27.155134240 60.0
27.188556777 53.0
27.221979314 67.0
27.255401852 58.0
27.288824389 44.0
27.322246926 58.0
27.355669463 64.0
27.389092000 63.0
27.422514538 75.0
27.455937075 45.0
27.489359612 59.0
27.522782149 61.0
27.556204687 49.0
27.589627224 60.0
27.623049761 51.0
27.656472298 58.0
27.689894836 66.0
27.723317373 48.0
27.756739910 59.0
27.790162447 52.0
27.823584985 60.0
27.857007522 55.0
27.890430059 58.0
27.923852596 61.0
27.957275134 57.0
27.990697671 50.0
28.024120208 69.0
28.057542745 57.0
28.090965283 66.0
28.124387820 44.0
28.157810357 55.0
28.191232894 55.0
28.224655432 58.0
28.258077969 57.0
28.291500506 66.0
28.324923043 49.0
28.358345580 52.0
28.391768118 57.0
28.425190655 50.0
28.458613192 54.0
28.492035729 60.0
28.525458267 74.0
28.558880804 53.0
28.592303341 54.0
28.625725878 60.0
28.659148416 57.0
28.692570953 58.0
28.725993490 52.0
28.759416027 45.0
28.792838565 41.0
28.826261102 58.0
28.859683639 50.0
28.893106176 54.0
28.926528714 64.0
28.959951251 62.0
28.993373788 55.0
29.026796325 69.0
29.060218863 55.0
29.093641400 55.0
29.127063937 64.0
29.160486474 62.0
29.193909012 66.0
29.227331549 57.0
29.260754086 51.0
29.294176623 77.0
29.327599161 61.0
29.361021698 50.0
29.394444235 61.0
29.427866772 45.0
29.461289309 67.0
29.494711847 55.0
29.528134384 69.0
29.561556921 66.0
29.594979458 60.0
29.628401996 55.0
29.661824533 60.0
29.695247070 43.0
29.728669607 69.0
29.762092145 54.0
29.795514682 69.0
29.828937219 60.0
29.862359756 71.0
29.895782294 50.0
29.929204831 69.0
29.962627368 50.0
29.996049905 60.0
30.029472443 58.0
30.062894980 57.0
30.096317517 51.0
30.129740054 58.0
30.163162592 65.0
30.196585129 52.0
30.230007666 75.0
30.263430203 71.0
30.296852741 73.0
30.330275278 64.0
30.363697815 64.0
30.397120352 79.0
30.430542889 72.0
30.463965427 51.0
30.497387964 66.0
30.530810501 51.0
30.564233038 57.0
30.597655576 67.0
30.631078113 64.0
30.664500650 73.0
30.697923187 65.0
30.731345725 75.0
30.764768262 53.0
30.798190799 53.0
30.831613336 78.0
30.865035874 58.0
30.898458411 81.0
30.931880948 76.0
30.965303485 74.0
30.998726023 60.0
31.032148560 62.0
31.065571097 69.0
31.098993634 63.0
31.132416172 79.0
31.165838709 68.0
31.199261246 65.0
31.232683783 81.0
31.266106321 83.0
31.299528858 62.0
31.332951395 79.0
31.366373932 81.0
31.399796470 92.0
31.433219007 77.0
31.466641544 91.0
31.500064081 85.0
31.533486618 65.0
31.566909156 83.0
31.600331693 80.0
31.633754230 77.0
31.667176767 81.0
31.700599305 79.0
31.734021842 87.0
31.767444379 77.0
31.800866916 105.0
31.834289454 90.0
31.867711991 94.0
31.901134528 87.0
31.934557065 72.0
31.967979603 97.0
32.001402140 100.0
32.034824677 113.0
32.068247214 88.0
32.101669752 95.0
32.135092289 111.0
32.168514826 85.0
32.201937363 125.0
32.235359901 93.0
32.268782438 99.0
32.302204975 105.0
32.335627512 92.0
32.369050050 100.0
32.402472587 128.0
32.435895124 107.0
32.469317661 128.0
32.502740198 95.0
32.536162736 90.0
32.569585273 103.0
32.603007810 102.0
32.636430347 110.0
32.669852885 111.0
32.703275422 104.0
32.736697959 113.0
32.770120496 120.0
32.803543034 111.0
32.836965571 121.0
32.870388108 106.0
32.903810645 91.0
32.937233183 115.0
32.970655720 99.0
33.004078257 124.0
33.037500794 109.0
33.070923332 107.0
33.104345869 118.0
33.137768406 105.0
33.171190943 106.0
33.204613481 114.0
33.238036018 93.0
33.271458555 110.0
33.304881092 117.0
33.338303630 103.0
33.371726167 104.0
33.405148704 103.0
33.438571241 124.0
33.471993779 118.0
33.505416316 114.0
33.538838853 93.0
33.572261390 95.0
33.605683927 103.0
33.639106465 115.0
33.672529002 115.0
33.705951539 116.0
33.739374076 87.0
33.772796614 85.0
33.806219151 96.0
33.839641688 123.0
33.873064225 81.0
33.906486763 96.0
33.939909300 102.0
33.973331837 108.0
34.006754374 80.0
34.040176912 107.0
34.073599449 128.0
34.107021986 106.0
34.140444523 103.0
34.173867061 119.0
34.207289598 100.0
34.240712135 127.0
34.274134672 103.0
34.307557210 108.0
34.340979747 106.0
34.374402284 96.0
34.407824821 85.0
34.441247359 120.0
34.474669896 127.0
34.508092433 93.0
34.541514970 99.0
34.574937507 106.0
34.608360045 92.0
34.641782582 89.0
34.675205119 81.0
34.708627656 93.0
34.742050194 93.0
34.775472731 95.0
34.808895268 93.0
34.842317805 100.0
34.875740343 115.0
34.909162880 92.0
34.942585417 104.0
34.976007954 101.0
35.009430492 93.0
35.042853029 87.0
35.076275566 90.0
35.109698103 86.0
35.143120641 116.0
35.176543178 81.0
35.209965715 88.0
35.243388252 94.0
35.276810790 90.0
35.310233327 89.0
35.343655864 109.0
35.377078401 110.0
35.410500939 92.0
35.443923476 83.0
35.477346013 81.0
35.510768550 71.0
35.544191088 89.0
35.577613625 87.0
35.611036162 67.0
35.644458699 74.0
35.677881236 90.0
35.711303774 79.0
35.744726311 89.0
35.778148848 89.0
35.811571385 92.0
35.844993923 94.0
35.878416460 81.0
35.911838997 80.0
35.945261534 89.0
35.978684072 93.0
36.012106609 83.0
36.045529146 72.0
36.078951683 75.0
36.112374221 106.0
36.145796758 86.0
36.179219295 100.0
36.212641832 94.0
36.246064370 92.0
36.279486907 103.0
36.312909444 80.0
36.346331981 120.0
36.379754519 109.0
36.413177056 99.0
36.446599593 101.0
36.480022130 102.0
36.513444668 102.0
36.546867205 100.0
36.580289742 115.0
36.613712279 102.0
36.647134816 113.0
36.680557354 106.0
36.713979891 106.0
36.747402428 105.0
36.780824965 102.0
36.814247503 90.0
36.847670040 101.0
36.881092577 92.0
36.914515114 103.0
36.947937652 97.0
36.981360189 92.0
37.014782726 95.0
37.048205263 81.0
37.081627801 90.0
37.115050338 85.0
37.148472875 66.0
37.181895412 72.0
37.215317950 91.0
37.248740487 79.0
37.282163024 85.0
37.315585561 75.0
37.349008099 78.0
37.382430636 66.0
37.415853173 66.0
37.449275710 87.0
37.482698248 73.0
37.516120785 69.0
37.549543322 74.0
37.582965859 66.0
37.616388397 64.0
37.649810934 59.0
37.683233471 61.0
37.716656008 80.0
37.750078545 68.0
37.783501083 72.0
37.816923620 76.0
37.850346157 76.0
37.883768694 86.0
37.917191232 53.0
37.950613769 75.0
37.984036306 71.0
38.017458843 80.0
38.050881381 73.0
38.084303918 76.0
38.117726455 76.0
38.151148992 82.0
38.184571530 61.0
38.217994067 81.0
38.251416604 55.0
38.284839141 95.0
38.318261679 75.0
38.351684216 60.0
38.385106753 74.0
38.418529290 81.0
38.451951828 69.0
38.485374365 65.0
38.518796902 85.0
38.552219439 85.0
38.585641977 83.0
38.619064514 82.0
38.652487051 89.0
38.685909588 77.0
38.719332125 85.0
38.752754663 85.0
38.786177200 101.0
38.819599737 85.0
38.853022274 99.0
38.886444812 82.0
38.919867349 71.0
38.953289886 65.0
38.986712423 100.0
39.020134961 90.0
39.053557498 93.0
39.086980035 102.0
39.120402572 100.0
39.153825110 95.0
39.187247647 109.0
39.220670184 105.0
39.254092721 99.0
39.287515259 109.0
39.320937796 100.0
39.354360333 118.0
39.387782870 124.0
39.421205408 121.0
39.454627945 119.0
39.488050482 125.0
39.521473019 135.0
39.554895557 114.0
39.588318094 116.0
39.621740631 139.0
39.655163168 131.0
39.688585706 134.0
39.722008243 111.0
39.755430780 132.0
39.788853317 117.0
39.822275854 166.0
39.855698392 142.0
39.889120929 155.0
39.922543466 147.0
39.955966003 156.0
39.989388541 144.0
40.022811078 157.0
40.056233615 176.0
40.089656152 144.0
40.123078690 149.0
40.156501227 133.0
40.189923764 169.0
40.223346301 156.0
40.256768839 153.0
40.290191376 158.0
40.323613913 167.0
40.357036450 175.0
40.390458988 171.0
40.423881525 176.0
40.457304062 190.0
40.490726599 207.0
40.524149137 213.0
40.557571674 228.0
40.590994211 235.0
40.624416748 233.0
40.657839286 236.0
40.691261823 246.0
40.724684360 218.0
40.758106897 232.0
40.791529434 202.0
40.824951972 202.0
40.858374509 230.0
40.891797046 250.0
40.925219583 236.0
40.958642121 244.0
40.992064658 265.0
41.025487195 256.0
41.058909732 258.0
41.092332270 279.0
41.125754807 304.0
41.159177344 303.0
41.192599881 338.0
41.226022419 391.0
41.259444956 368.0
41.292867493 427.0
41.326290030 471.0
41.359712568 493.0
41.393135105 499.0
41.426557642 585.0
41.459980179 887.0
41.493402717 1114.0
41.526825254 989.0
41.560247791 996.0
41.593670328 1006.0
41.627092866 1029.0
41.660515403 1120.0
41.693937940 1152.0
41.727360477 1221.0
41.760783015 1327.0
41.794205552 1473.0
41.827628089 1595.0
41.861050626 1728.0
41.894473163 1916.0
41.927895701 2160.0
41.961318238 2314.0
41.994740775 2605.0
42.028163312 2875.0
42.061585850 3147.0
42.095008387 3365.0
42.128430924 3678.0
42.161853461 3996.0
42.195275999 4375.0
42.228698536 4729.0
42.262121073 4945.0
42.295543610 5356.0
42.328966148 5412.0
42.362388685 5719.0
42.395811222 5975.0
42.429233759 6078.0
42.462656297 6290.0
42.496078834 6578.0
42.529501371 6608.0
42.562923908 6769.0
42.596346446 6896.0
42.629768983 7275.0
42.663191520 7441.0
42.696614057 7961.0
42.730036595 9269.0
42.763459132 11977.0
42.796881669 17288.0
42.830304206 19470.0
42.863726743 21646.0
42.897149281 33166.0
42.930571818 74033.0
42.963994355 234106.0
42.997416892 641988.0
43.030839430 324922.0
43.064261967 135925.0
43.097684504 380964.0
43.131107041 336189.0
43.164529579 67675.0
43.197952116 26067.0
43.231374653 15333.0
43.264797190 10951.0
43.298219728 8241.0
43.331642265 6597.0
43.365064802 5658.0
43.398487339 4833.0
43.431909877 4136.0
43.465332414 3835.0
43.498754951 3420.0
43.532177488 3200.0
43.565600026 2944.0
43.599022563 2785.0
43.632445100 2522.0
43.665867637 2396.0
43.699290175 2290.0
43.732712712 2164.0
43.766135249 1936.0
43.799557786 1796.0
43.832980324 1697.0
43.866402861 1594.0
43.899825398 1551.0
43.933247935 1521.0
43.966670472 1412.0
44.000093010 1386.0
44.033515547 1311.0
44.066938084 1330.0
44.100360621 1112.0
44.133783159 1091.0
44.167205696 1016.0
44.200628233 929.0
44.234050770 945.0
44.267473308 846.0
44.300895845 875.0
44.334318382 779.0
44.367740919 728.0
44.401163457 675.0
44.434585994 693.0
44.468008531 638.0
44.501431068 582.0
44.534853606 553.0
44.568276143 473.0
44.601698680 444.0
44.635121217 480.0
44.668543755 420.0
44.701966292 472.0
44.735388829 411.0
44.768811366 399.0
44.802233904 348.0
44.835656441 341.0
44.869078978 321.0
44.902501515 317.0
44.935924052 275.0
44.969346590 275.0
45.002769127 262.0
45.036191664 241.0
45.069614201 236.0
45.103036739 220.0
45.136459276 181.0
45.169881813 194.0
45.203304350 189.0
45.236726888 156.0
45.270149425 148.0
45.303571962 174.0
45.336994499 157.0
45.370417037 149.0
45.403839574 138.0
45.437262111 120.0
45.470684648 124.0
45.504107186 128.0
45.537529723 106.0
45.570952260 120.0
45.604374797 106.0
45.637797335 124.0
45.671219872 100.0
45.704642409 87.0
45.738064946 82.0
45.771487484 115.0
45.804910021 75.0
45.838332558 94.0
45.871755095 81.0
45.905177633 93.0
45.938600170 86.0
45.972022707 81.0
46.005445244 93.0
46.038867781 110.0
46.072290319 77.0
46.105712856 57.0
46.139135393 80.0
46.172557930 88.0
46.205980468 76.0
46.239403005 82.0
46.272825542 62.0
46.306248079 77.0
46.339670617 89.0
46.373093154 88.0
46.406515691 89.0
46.439938228 91.0
46.473360766 107.0
46.506783303 80.0
46.540205840 66.0
46.573628377 76.0
46.607050915 81.0
46.640473452 96.0
46.673895989 60.0
46.707318526 62.0
46.740741064 64.0
46.774163601 65.0
46.807586138 73.0
46.841008675 75.0
46.874431213 60.0
46.907853750 72.0
46.941276287 80.0
46.974698824 65.0
47.008121362 62.0
47.041543899 76.0
47.074966436 87.0
47.108388973 58.0
47.141811510 63.0
47.175234048 47.0
47.208656585 45.0
47.242079122 38.0
47.275501659 54.0
47.308924197 37.0
47.342346734 36.0
47.375769271 47.0
47.409191808 44.0
47.442614346 48.0
47.476036883 37.0
47.509459420 46.0
47.542881957 41.0
47.576304495 34.0
47.609727032 44.0
47.643149569 29.0
47.676572106 44.0
47.709994644 36.0
47.743417181 29.0
47.776839718 43.0
47.810262255 25.0
47.843684793 48.0
47.877107330 31.0
47.910529867 37.0
47.943952404 43.0
47.977374942 39.0
48.010797479 25.0
48.044220016 31.0
48.077642553 23.0
48.111065090 34.0
48.144487628 39.0
48.177910165 45.0
48.211332702 27.0
48.244755239 23.0
48.278177777 34.0
48.311600314 31.0
48.345022851 29.0
48.378445388 27.0
48.411867926 32.0
48.445290463 19.0
48.478713000 26.0
48.512135537 24.0
48.545558075 37.0
48.578980612 36.0
48.612403149 19.0
48.645825686 25.0
48.679248224 27.0
48.712670761 26.0
48.746093298 20.0
48.779515835 35.0
48.812938373 32.0
48.846360910 25.0
48.879783447 21.0
48.913205984 19.0
48.946628522 30.0
48.980051059 27.0
49.013473596 26.0
49.046896133 22.0
49.080318671 19.0
49.113741208 23.0
49.147163745 21.0
49.180586282 19.0
49.214008819 26.0
49.247431357 22.0
49.280853894 24.0
49.314276431 24.0
49.347698968 33.0
49.381121506 24.0
49.414544043 29.0
49.447966580 19.0
49.481389117 26.0
49.514811655 19.0
49.548234192 24.0
49.581656729 24.0
49.615079266 20.0
49.648501804 30.0
49.681924341 23.0
49.715346878 13.0
49.748769415 17.0
49.782191953 18.0
49.815614490 25.0
49.849037027 21.0
49.882459564 26.0
49.915882102 23.0
49.949304639 29.0
49.982727176 24.0
50.016149713 22.0
50.049572251 23.0
50.082994788 25.0
50.116417325 24.0
50.149839862 23.0
50.183262399 23.0
50.216684937 26.0
50.250107474 17.0
50.283530011 29.0
50.316952548 19.0
50.350375086 23.0
50.383797623 21.0
50.417220160 12.0
50.450642697 24.0
50.484065235 19.0
50.517487772 9.0
50.550910309 9.0
50.584332846 15.0
50.617755384 20.0
50.651177921 17.0
50.684600458 15.0
50.718022995 20.0
50.751445533 20.0
50.784868070 20.0
50.818290607 12.0
50.851713144 20.0
50.885135682 15.0
50.918558219 24.0
50.951980756 29.0
50.985403293 16.0
51.018825831 26.0
51.052248368 23.0
51.085670905 23.0
51.119093442 27.0
51.152515980 26.0
51.185938517 18.0
51.219361054 21.0
51.252783591 16.0
51.286206128 20.0
51.319628666 11.0
51.353051203 18.0
51.386473740 22.0
51.419896277 15.0
51.453318815 23.0
51.486741352 21.0
51.520163889 33.0
51.553586426 18.0
51.587008964 10.0
51.620431501 18.0
51.653854038 17.0
51.687276575 10.0
51.720699113 13.0
51.754121650 22.0
51.787544187 19.0
51.820966724 20.0
51.854389262 19.0
51.887811799 11.0
51.921234336 22.0
51.954656873 15.0
51.988079411 13.0
52.021501948 16.0
52.054924485 9.0
52.088347022 15.0
52.121769560 13.0
52.155192097 21.0
52.188614634 12.0
52.222037171 18.0
52.255459708 24.0
52.288882246 19.0
52.322304783 18.0
52.355727320 17.0
52.389149857 8.0
52.422572395 15.0
52.455994932 18.0
52.489417469 20.0
52.522840006 12.0
52.556262544 15.0
52.589685081 20.0
52.623107618 13.0
52.656530155 12.0
52.689952693 17.0
52.723375230 17.0
52.756797767 18.0
52.790220304 22.0
52.823642842 15.0
52.857065379 17.0
52.890487916 23.0
52.923910453 8.0
52.957332991 19.0
52.990755528 17.0
53.024178065 20.0
53.057600602 19.0
53.091023140 15.0
53.124445677 7.0
53.157868214 19.0
53.191290751 21.0
53.224713289 11.0
53.258135826 11.0
53.291558363 10.0
53.324980900 20.0
53.358403437 21.0
53.391825975 13.0
53.425248512 11.0
53.458671049 15.0
53.492093586 22.0
53.525516124 17.0
53.558938661 21.0
53.592361198 24.0
53.625783735 15.0
53.659206273 10.0
53.692628810 13.0
53.726051347 13.0
53.759473884 12.0
53.792896422 17.0
53.826318959 11.0
53.859741496 10.0
53.893164033 17.0
53.926586571 21.0
53.960009108 13.0
53.993431645 15.0
54.026854182 8.0
54.060276720 11.0
54.093699257 13.0
54.127121794 11.0
54.160544331 13.0
54.193966869 17.0
54.227389406 7.0
54.260811943 10.0
54.294234480 16.0
54.327657017 12.0
54.361079555 18.0
54.394502092 21.0
54.427924629 18.0
54.461347166 15.0
54.494769704 13.0
54.528192241 25.0
54.561614778 11.0
54.595037315 18.0
54.628459853 23.0
54.661882390 5.0
54.695304927 12.0
54.728727464 16.0
54.762150002 9.0
54.795572539 11.0
54.828995076 13.0
54.862417613 11.0
54.895840151 16.0
54.929262688 16.0
54.962685225 16.0
54.996107762 11.0
55.029530300 20.0
55.062952837 9.0
55.096375374 15.0
55.129797911 23.0
55.163220449 20.0
55.196642986 10.0
55.230065523 6.0
55.263488060 8.0
55.296910598 16.0
55.330333135 12.0
55.363755672 16.0
55.397178209 21.0
55.430600746 18.0
55.464023284 17.0
55.497445821 15.0
55.530868358 11.0
55.564290895 20.0
55.597713433 13.0
55.631135970 9.0
55.664558507 15.0
55.697981044 12.0
55.731403582 26.0
55.764826119 15.0
55.798248656 15.0
55.831671193 13.0
55.865093731 13.0
55.898516268 12.0
55.931938805 13.0
55.965361342 18.0
55.998783880 19.0
56.032206417 12.0
56.065628954 7.0
56.099051491 11.0
56.132474029 18.0
56.165896566 16.0
56.199319103 9.0
56.232741640 18.0
56.266164178 12.0
56.299586715 11.0
56.333009252 12.0
56.366431789 11.0
56.399854326 8.0
56.433276864 7.0
56.466699401 16.0
56.500121938 7.0
56.533544475 13.0
56.566967013 12.0
56.600389550 19.0
56.633812087 10.0
56.667234624 12.0
56.700657162 12.0
56.734079699 8.0
56.767502236 12.0
56.800924773 15.0
56.834347311 9.0
56.867769848 9.0
56.901192385 12.0
56.934614922 13.0
56.968037460 12.0
57.001459997 15.0
57.034882534 16.0
57.068305071 9.0
57.101727609 16.0
57.135150146 15.0
57.168572683 11.0
57.201995220 17.0
57.235417758 21.0
57.268840295 10.0
57.302262832 13.0
57.335685369 13.0
57.369107907 8.0
57.402530444 12.0
57.435952981 10.0
57.469375518 17.0
57.502798055 13.0
57.536220593 16.0
57.569643130 10.0
57.603065667 12.0
57.636488204 9.0
57.669910742 8.0
57.703333279 13.0
57.736755816 16.0
57.770178353 17.0
57.803600891 9.0
57.837023428 8.0
57.870445965 7.0
57.903868502 13.0
57.937291040 15.0
57.970713577 11.0
58.004136114 12.0
58.037558651 12.0
58.070981189 7.0
58.104403726 6.0
58.137826263 16.0
58.171248800 12.0
58.204671338 13.0
58.238093875 20.0
58.271516412 9.0
58.304938949 7.0
58.338361487 16.0
58.371784024 7.0
58.405206561 16.0
58.438629098 11.0
58.472051635 9.0
58.505474173 19.0
58.538896710 11.0
58.572319247 10.0
58.605741784 16.0
58.639164322 12.0
58.672586859 11.0
58.706009396 13.0
58.739431933 10.0
58.772854471 9.0
58.806277008 11.0
58.839699545 7.0
58.873122082 11.0
58.906544620 9.0
58.939967157 16.0
58.973389694 18.0
59.006812231 18.0
59.040234769 8.0
59.073657306 8.0
59.107079843 10.0
59.140502380 10.0
59.173924918 13.0
59.207347455 10.0
59.240769992 17.0
59.274192529 10.0
59.307615067 11.0
59.341037604 8.0
59.374460141 19.0
59.407882678 18.0
59.441305216 16.0
59.474727753 12.0
59.508150290 18.0
59.541572827 12.0
59.574995364 12.0
59.608417902 12.0
59.641840439 11.0
59.675262976 19.0
59.708685513 9.0
59.742108051 17.0
59.775530588 6.0
59.808953125 16.0
59.842375662 3.0
59.875798200 17.0
59.909220737 11.0
59.942643274 17.0
59.976065811 13.0
60.009488349 16.0
60.042910886 12.0
60.076333423 7.0
60.109755960 15.0
60.143178498 11.0
60.176601035 13.0
60.210023572 17.0
60.243446109 9.0
60.276868647 15.0
60.310291184 6.0
60.343713721 15.0
60.377136258 8.0
60.410558796 18.0
60.443981333 19.0
60.477403870 7.0
60.510826407 12.0
60.544248944 13.0
60.577671482 12.0
60.611094019 18.0
60.644516556 12.0
60.677939093 12.0
60.711361631 13.0
60.744784168 12.0
60.778206705 8.0
60.811629242 16.0
60.845051780 15.0
60.878474317 15.0
60.911896854 11.0
60.945319391 13.0
60.978741929 18.0
61.012164466 12.0
61.045587003 10.0
61.079009540 11.0
61.112432078 20.0
61.145854615 5.0
61.179277152 12.0
61.212699689 19.0
61.246122227 15.0
61.279544764 13.0
61.312967301 6.0
61.346389838 11.0
61.379812376 12.0
61.413234913 7.0
61.446657450 18.0
61.480079987 16.0
61.513502525 10.0
61.546925062 16.0
61.580347599 13.0
61.613770136 5.0
61.647192673 11.0
61.680615211 17.0
61.714037748 12.0
61.747460285 15.0
61.780882822 10.0
61.814305360 11.0
61.847727897 9.0
61.881150434 6.0
61.914572971 10.0
61.947995509 17.0
61.981418046 9.0
62.014840583 17.0
62.048263120 17.0
62.081685658 13.0
62.115108195 10.0
62.148530732 10.0
62.181953269 16.0
62.215375807 13.0
62.248798344 16.0
62.282220881 18.0
62.315643418 10.0
62.349065956 15.0
62.382488493 9.0
62.415911030 12.0
62.449333567 5.0
62.482756105 12.0
62.516178642 12.0
62.549601179 13.0
62.583023716 8.0
62.616446253 13.0
62.649868791 10.0
62.683291328 7.0
62.716713865 20.0
62.750136402 10.0
62.783558940 18.0
62.816981477 13.0
62.850404014 13.0
62.883826551 10.0
62.917249089 7.0
62.950671626 19.0
62.984094163 12.0
63.017516700 13.0
63.050939238 13.0
63.084361775 7.0
63.117784312 17.0
63.151206849 7.0
63.184629387 16.0
63.218051924 8.0
63.251474461 7.0
63.284896998 12.0
63.318319536 16.0
63.351742073 15.0
63.385164610 11.0
63.418587147 7.0
63.452009685 11.0
63.485432222 10.0
63.518854759 9.0
63.552277296 8.0
63.585699834 9.0
63.619122371 6.0
63.652544908 7.0
63.685967445 13.0
63.719389982 15.0
63.752812520 8.0
63.786235057 11.0
63.819657594 9.0
63.853080131 6.0
63.886502669 18.0
63.919925206 9.0
63.953347743 16.0
63.986770280 15.0
64.020192818 17.0
64.053615355 11.0
64.087037892 9.0
64.120460429 13.0
64.153882967 11.0
64.187305504 9.0
64.220728041 7.0
64.254150578 10.0
64.287573116 15.0
64.320995653 7.0
64.354418190 10.0
64.387840727 9.0
64.421263265 11.0
64.454685802 8.0
64.488108339 9.0
64.521530876 12.0
64.554953414 16.0
64.588375951 17.0
64.621798488 12.0
64.655221025 10.0
64.688643562 7.0
64.722066100 13.0
64.755488637 9.0
64.788911174 9.0
64.822333711 8.0
64.855756249 9.0
64.889178786 7.0
64.922601323 15.0
64.956023860 7.0
64.989446398 15.0
65.022868935 11.0
65.056291472 13.0
65.089714009 5.0
65.123136547 10.0
65.156559084 10.0
65.189981621 5.0
65.223404158 5.0
65.256826696 9.0
65.290249233 15.0
65.323671770 8.0
65.357094307 19.0
65.390516845 13.0
65.423939382 13.0
65.457361919 21.0
65.490784456 9.0
65.524206994 11.0
65.557629531 8.0
65.591052068 17.0
65.624474605 18.0
65.657897143 17.0
65.691319680 8.0
65.724742217 11.0
65.758164754 13.0
65.791587291 17.0
65.825009829 10.0
65.858432366 12.0
65.891854903 16.0
65.925277440 12.0
65.958699978 6.0
65.992122515 15.0
66.025545052 15.0
66.058967589 11.0
66.092390127 9.0
66.125812664 12.0
66.159235201 9.0
66.192657738 10.0
66.226080276 12.0
66.259502813 15.0
66.292925350 11.0
66.326347887 8.0
66.359770425 17.0
66.393192962 12.0
66.426615499 8.0
66.460038036 11.0
66.493460574 17.0
66.526883111 16.0
66.560305648 9.0
66.593728185 12.0
66.627150723 9.0
66.660573260 7.0
66.693995797 16.0
66.727418334 6.0
66.760840871 7.0
66.794263409 16.0
66.827685946 11.0
66.861108483 12.0
66.894531020 7.0
66.927953558 17.0
66.961376095 6.0
66.994798632 9.0
67.028221169 8.0
67.061643707 11.0
67.095066244 10.0
67.128488781 13.0
67.161911318 15.0
67.195333856 8.0
67.228756393 15.0
67.262178930 8.0
67.295601467 8.0
67.329024005 11.0
67.362446542 11.0
67.395869079 8.0
67.429291616 8.0
67.462714154 16.0
67.496136691 16.0
67.529559228 8.0
67.562981765 19.0
67.596404303 11.0
67.629826840 9.0
67.663249377 12.0
67.696671914 7.0
67.730094452 12.0
67.763516989 9.0
67.796939526 6.0
67.830362063 9.0
67.863784600 15.0
67.897207138 8.0
67.930629675 10.0
67.964052212 16.0
67.997474749 10.0
68.030897287 10.0
68.064319824 9.0
68.097742361 11.0
68.131164898 13.0
68.164587436 11.0
68.198009973 15.0
68.231432510 11.0
68.264855047 13.0
68.298277585 13.0
68.331700122 10.0
68.365122659 10.0
68.398545196 10.0
68.431967734 15.0
68.465390271 10.0
68.498812808 10.0
68.532235345 16.0
68.565657883 10.0
68.599080420 9.0
68.632502957 6.0
68.665925494 18.0
68.699348032 7.0
68.732770569 10.0
68.766193106 12.0
68.799615643 11.0
68.833038180 11.0
68.866460718 11.0
68.899883255 15.0
68.933305792 16.0
68.966728329 9.0
69.000150867 11.0
69.033573404 6.0
69.066995941 12.0
69.100418478 8.0
69.133841016 15.0
69.167263553 17.0
69.200686090 11.0
69.234108627 21.0
69.267531165 13.0
69.300953702 9.0
69.334376239 13.0
69.367798776 12.0
69.401221314 8.0
69.434643851 11.0
69.468066388 15.0
69.501488925 12.0
69.534911463 11.0
69.568334000 11.0
69.601756537 12.0
69.635179074 15.0
69.668601612 12.0
69.702024149 10.0
69.735446686 16.0
69.768869223 15.0
69.802291761 9.0
69.835714298 10.0
69.869136835 17.0
69.902559372 11.0
69.935981909 10.0
69.969404447 9.0
70.002826984 13.0
70.036249521 9.0
70.069672058 15.0
70.103094596 16.0
70.136517133 8.0
70.169939670 18.0
70.203362207 7.0
70.236784745 12.0
70.270207282 12.0
70.303629819 12.0
70.337052356 18.0
70.370474894 9.0
70.403897431 7.0
70.437319968 13.0
70.470742505 10.0
70.504165043 15.0
70.537587580 10.0
70.571010117 9.0
70.604432654 7.0
70.637855192 12.0
70.671277729 9.0
70.704700266 15.0
70.738122803 9.0
70.771545341 8.0
70.804967878 6.0
70.838390415 8.0
70.871812952 13.0
70.905235489 10.0
70.938658027 10.0
70.972080564 13.0
71.005503101 13.0
71.038925638 10.0
71.072348176 4.0
71.105770713 8.0
71.139193250 11.0
71.172615787 8.0
71.206038325 21.0
71.239460862 8.0
71.272883399 6.0
71.306305936 15.0
71.339728474 15.0
71.373151011 5.0
71.406573548 13.0
71.439996085 15.0
71.473418623 12.0
71.506841160 11.0
71.540263697 13.0
71.573686234 13.0
71.607108772 11.0
71.640531309 13.0
71.673953846 6.0
71.707376383 13.0
71.740798921 7.0
71.774221458 7.0
71.807643995 8.0
71.841066532 4.0
71.874489070 19.0
71.907911607 8.0
71.941334144 10.0
71.974756681 4.0
72.008179218 9.0
72.041601756 9.0
72.075024293 13.0
72.108446830 19.0
72.141869367 5.0
72.175291905 10.0
72.208714442 10.0
72.242136979 7.0
72.275559516 11.0
72.308982054 11.0
72.342404591 8.0
72.375827128 12.0
72.409249665 9.0
72.442672203 15.0
72.476094740 11.0
72.509517277 17.0
72.542939814 13.0
72.576362352 15.0
72.609784889 12.0
72.643207426 10.0
72.676629963 10.0
72.710052501 13.0
72.743475038 11.0
72.776897575 12.0
72.810320112 9.0
72.843742650 10.0
72.877165187 4.0
72.910587724 15.0
72.944010261 9.0
72.977432798 9.0
73.010855336 21.0
73.044277873 11.0
73.077700410 10.0
73.111122947 6.0
73.144545485 16.0
73.177968022 12.0
73.211390559 11.0
73.244813096 15.0
73.278235634 6.0
73.311658171 19.0
73.345080708 9.0
73.378503245 7.0
73.411925783 10.0
73.445348320 8.0
73.478770857 21.0
73.512193394 15.0
73.545615932 16.0
73.579038469 19.0
73.612461006 10.0
73.645883543 13.0
73.679306081 7.0
73.712728618 6.0
73.746151155 15.0
73.779573692 10.0
73.812996230 10.0
73.846418767 16.0
73.879841304 18.0
73.913263841 8.0
73.946686379 12.0
73.980108916 10.0
74.013531453 9.0
74.046953990 16.0
74.080376527 17.0
74.113799065 11.0
74.147221602 9.0
74.180644139 17.0
74.214066676 11.0
74.247489214 16.0
74.280911751 13.0
74.314334288 9.0
74.347756825 9.0
74.381179363 3.0
74.414601900 10.0
74.448024437 6.0
74.481446974 11.0
74.514869512 5.0
74.548292049 15.0
74.581714586 9.0
74.615137123 5.0
74.648559661 8.0
74.681982198 16.0
74.715404735 13.0
74.748827272 12.0
74.782249810 8.0
74.815672347 10.0
74.849094884 13.0
74.882517421 12.0
74.915939959 9.0
74.949362496 10.0
74.982785033 16.0
75.016207570 11.0
75.049630108 10.0
75.083052645 8.0
75.116475182 2.0
75.149897719 5.0
75.183320256 11.0
75.216742794 10.0
75.250165331 7.0
75.283587868 5.0
75.317010405 10.0
75.350432943 16.0
75.383855480 13.0
75.417278017 7.0
75.450700554 17.0
75.484123092 15.0
75.517545629 15.0
75.550968166 15.0
75.584390703 10.0
75.617813241 8.0
75.651235778 19.0
75.684658315 9.0
75.718080852 15.0
75.751503390 9.0
75.784925927 15.0
75.818348464 10.0
75.851771001 15.0
75.885193539 9.0
75.918616076 10.0
75.952038613 8.0
75.985461150 19.0
76.018883688 7.0
76.052306225 13.0
76.085728762 13.0
76.119151299 18.0
76.152573836 15.0
76.185996374 8.0
76.219418911 11.0
76.252841448 11.0
76.286263985 15.0
76.319686523 16.0
76.353109060 13.0
76.386531597 11.0
76.419954134 13.0
76.453376672 13.0
76.486799209 16.0
76.520221746 13.0
76.553644283 11.0
76.587066821 10.0
76.620489358 8.0
76.653911895 8.0
76.687334432 8.0
76.720756970 12.0
76.754179507 18.0
76.787602044 9.0
76.821024581 19.0
76.854447119 10.0
76.887869656 8.0
76.921292193 15.0
76.954714730 19.0
76.988137268 12.0
77.021559805 11.0
77.054982342 10.0
77.088404879 20.0
77.121827417 15.0
77.155249954 17.0
77.188672491 10.0
77.222095028 9.0
77.255517565 19.0
77.288940103 16.0
77.322362640 13.0
77.355785177 18.0
77.389207714 8.0
77.422630252 16.0
77.456052789 12.0
77.489475326 17.0
77.522897863 10.0
77.556320401 9.0
77.589742938 16.0
77.623165475 11.0
77.656588012 17.0
77.690010550 13.0
77.723433087 23.0
77.756855624 9.0
77.790278161 19.0
77.823700699 13.0
77.857123236 20.0
77.890545773 15.0
77.923968310 20.0
77.957390848 16.0
77.990813385 11.0
78.024235922 10.0
78.057658459 15.0
78.091080997 9.0
78.124503534 11.0
78.157926071 16.0
78.191348608 22.0
78.224771145 11.0
78.258193683 18.0
78.291616220 3.0
78.325038757 12.0
78.358461294 8.0
78.391883832 16.0
78.425306369 8.0
78.458728906 13.0
78.492151443 13.0
78.525573981 11.0
78.558996518 10.0
78.592419055 15.0
78.625841592 18.0
78.659264130 9.0
78.692686667 10.0
78.726109204 12.0
78.759531741 12.0
78.792954279 16.0
78.826376816 15.0
78.859799353 12.0
78.893221890 5.0
78.926644428 12.0
78.960066965 15.0
78.993489502 10.0
79.026912039 10.0
79.060334577 6.0
79.093757114 13.0
79.127179651 17.0
79.160602188 15.0
79.194024726 12.0
79.227447263 11.0
79.260869800 12.0
79.294292337 15.0
79.327714874 6.0
79.361137412 15.0
79.394559949 8.0
79.427982486 10.0
79.461405023 13.0
79.494827561 9.0
79.528250098 9.0
79.561672635 16.0
79.595095172 10.0
79.628517710 8.0
79.661940247 11.0
79.695362784 18.0
79.728785321 22.0
79.762207859 13.0
79.795630396 11.0
79.829052933 9.0
79.862475470 11.0
79.895898008 7.0
79.929320545 11.0
79.962743082 11.0
79.996165619 15.0
80.029588157 10.0
80.063010694 15.0
80.096433231 17.0
80.129855768 9.0
80.163278306 20.0
80.196700843 16.0
80.230123380 6.0
80.263545917 10.0
80.296968454 8.0
80.330390992 13.0
80.363813529 11.0
80.397236066 11.0
80.430658603 12.0
80.464081141 17.0
80.497503678 5.0
80.530926215 11.0
80.564348752 18.0
80.597771290 13.0
80.631193827 11.0
80.664616364 15.0
80.698038901 8.0
80.731461439 9.0
80.764883976 10.0
80.798306513 17.0
80.831729050 16.0
80.865151588 15.0
80.898574125 9.0
80.931996662 11.0
80.965419199 12.0
80.998841737 10.0
81.032264274 16.0
81.065686811 11.0
81.099109348 9.0
81.132531886 10.0
81.165954423 6.0
81.199376960 8.0
81.232799497 9.0
81.266222035 12.0
81.299644572 12.0
81.333067109 17.0
81.366489646 12.0
81.399912183 13.0
81.433334721 8.0
81.466757258 15.0
81.500179795 15.0
81.533602332 9.0
81.567024870 9.0
81.600447407 12.0
81.633869944 9.0
81.667292481 13.0
81.700715019 13.0
81.734137556 6.0
81.767560093 11.0
81.800982630 10.0
81.834405168 9.0
81.867827705 9.0
81.901250242 6.0
81.934672779 9.0
81.968095317 9.0
82.001517854 11.0
82.034940391 12.0
82.068362928 16.0
82.101785466 6.0
82.135208003 16.0
82.168630540 19.0
82.202053077 8.0
82.235475615 9.0
82.268898152 16.0
82.302320689 13.0
82.335743226 16.0
82.369165763 17.0
82.402588301 18.0
82.436010838 10.0
82.469433375 9.0
82.502855912 6.0
82.536278450 12.0
82.569700987 18.0
82.603123524 17.0
82.636546061 12.0
82.669968599 13.0
82.703391136 17.0
82.736813673 9.0
82.770236210 10.0
82.803658748 20.0
82.837081285 16.0
82.870503822 12.0
82.903926359 20.0
82.937348897 18.0
82.970771434 16.0
83.004193971 20.0
83.037616508 7.0
83.071039046 9.0
83.104461583 13.0
83.137884120 5.0
83.171306657 9.0
83.204729195 4.0
83.238151732 17.0
83.271574269 11.0
83.304996806 11.0
83.338419344 18.0
83.371841881 6.0
83.405264418 10.0
83.438686955 21.0
83.472109492 15.0
83.505532030 15.0
83.538954567 22.0
83.572377104 11.0
83.605799641 11.0
83.639222179 13.0
83.672644716 12.0
83.706067253 12.0
83.739489790 16.0
83.772912328 15.0
83.806334865 17.0
83.839757402 10.0
83.873179939 9.0
83.906602477 18.0
83.940025014 17.0
83.973447551 12.0
84.006870088 18.0
84.040292626 13.0
84.073715163 12.0
84.107137700 11.0
84.140560237 9.0
84.173982775 9.0
84.207405312 15.0
84.240827849 8.0
84.274250386 23.0
84.307672924 6.0
84.341095461 13.0
84.374517998 13.0
84.407940535 18.0
84.441363072 11.0
84.474785610 13.0
84.508208147 13.0
84.541630684 15.0
84.575053221 12.0
84.608475759 16.0
84.641898296 15.0
84.675320833 13.0
84.708743370 8.0
84.742165908 18.0
84.775588445 18.0
84.809010982 13.0
84.842433519 10.0
84.875856057 17.0
84.909278594 18.0
84.942701131 16.0
84.976123668 12.0
85.009546206 11.0
85.042968743 8.0
85.076391280 11.0
85.109813817 8.0
85.143236355 13.0
85.176658892 11.0
85.210081429 16.0
85.243503966 10.0
85.276926504 16.0
85.310349041 19.0
85.343771578 17.0
85.377194115 9.0
85.410616653 21.0
85.444039190 12.0
85.477461727 16.0
85.510884264 17.0
85.544306801 7.0
85.577729339 10.0
85.611151876 7.0
85.644574413 20.0
85.677996950 22.0
85.711419488 16.0
85.744842025 21.0
85.778264562 20.0
85.811687099 11.0
85.845109637 11.0
85.878532174 18.0
85.911954711 13.0
85.945377248 18.0
85.978799786 13.0
86.012222323 16.0
86.045644860 17.0
86.079067397 10.0
86.112489935 21.0
86.145912472 18.0
86.179335009 8.0
86.212757546 16.0
86.246180084 23.0
86.279602621 21.0
86.313025158 18.0
86.346447695 16.0
86.379870233 13.0
86.413292770 11.0
86.446715307 9.0
86.480137844 25.0
86.513560381 19.0
86.546982919 20.0
86.580405456 18.0
86.613827993 12.0
86.647250530 17.0
86.680673068 16.0
86.714095605 23.0
86.747518142 25.0
86.780940679 13.0
86.814363217 13.0
86.847785754 12.0
86.881208291 17.0
86.914630828 17.0
86.948053366 15.0
86.981475903 21.0
87.014898440 19.0
87.048320977 11.0
87.081743515 12.0
87.115166052 25.0
87.148588589 17.0
87.182011126 20.0
87.215433664 19.0
87.248856201 13.0
87.282278738 16.0
87.315701275 9.0
87.349123813 18.0
87.382546350 23.0
87.415968887 27.0
87.449391424 20.0
87.482813962 19.0
87.516236499 19.0
87.549659036 26.0
87.583081573 21.0
87.616504110 12.0
87.649926648 16.0
87.683349185 24.0
87.716771722 12.0
87.750194259 19.0
87.783616797 23.0
87.817039334 15.0
87.850461871 24.0
87.883884408 30.0
87.917306946 18.0
87.950729483 21.0
87.984152020 20.0
88.017574557 25.0
88.050997095 20.0
88.084419632 11.0
88.117842169 22.0
88.151264706 25.0
88.184687244 24.0
88.218109781 26.0
88.251532318 24.0
88.284954855 32.0
88.318377393 23.0
88.351799930 19.0
88.385222467 10.0
88.418645004 26.0
88.452067542 29.0
88.485490079 22.0
88.518912616 19.0
88.552335153 21.0
88.585757690 15.0
88.619180228 15.0
88.652602765 19.0
88.686025302 22.0
88.719447839 21.0
88.752870377 23.0
88.786292914 19.0
88.819715451 20.0
88.853137988 22.0
88.886560526 22.0
88.919983063 26.0
88.953405600 33.0
88.986828137 37.0
89.020250675 24.0
89.053673212 18.0
89.087095749 26.0
89.120518286 22.0
89.153940824 29.0
89.187363361 18.0
89.220785898 32.0
89.254208435 29.0
89.287630973 32.0
89.321053510 24.0
89.354476047 22.0
89.387898584 23.0
89.421321122 24.0
89.454743659 25.0
89.488166196 25.0
89.521588733 22.0
89.555011271 22.0
89.588433808 18.0
89.621856345 33.0
89.655278882 32.0
89.688701419 25.0
89.722123957 32.0
89.755546494 35.0
89.788969031 27.0
89.822391568 30.0
89.855814106 36.0
89.889236643 25.0
89.922659180 39.0
89.956081717 48.0
89.989504255 65.0
90.022926792 64.0
90.056349329 59.0
90.089771866 72.0
90.123194404 77.0
90.156616941 66.0
90.190039478 57.0
90.223462015 66.0
90.256884553 87.0
90.290307090 69.0
90.323729627 61.0
90.357152164 65.0
90.390574702 61.0
90.423997239 67.0
90.457419776 57.0
90.490842313 65.0
90.524264851 81.0
90.557687388 80.0
90.591109925 64.0
90.624532462 86.0
90.657954999 78.0
90.691377537 93.0
90.724800074 89.0
90.758222611 81.0
90.791645148 85.0
90.825067686 73.0
90.858490223 95.0
90.891912760 81.0
90.925335297 88.0
90.958757835 82.0
90.992180372 104.0
91.025602909 87.0
91.059025446 87.0
91.092447984 97.0
91.125870521 115.0
91.159293058 94.0
91.192715595 107.0
91.226138133 86.0
91.259560670 96.0
91.292983207 87.0
91.326405744 114.0
91.359828282 114.0
91.393250819 125.0
91.426673356 117.0
91.460095893 131.0
91.493518431 123.0
91.526940968 119.0
91.560363505 132.0
91.593786042 125.0
91.627208580 131.0
91.660631117 133.0
91.694053654 137.0
91.727476191 161.0
91.760898728 134.0
91.794321266 156.0
91.827743803 163.0
91.861166340 183.0
91.894588877 151.0
91.928011415 176.0
91.961433952 166.0
91.994856489 180.0
92.028279026 184.0
92.061701564 202.0
92.095124101 205.0
92.128546638 185.0
92.161969175 206.0
92.195391713 206.0
92.228814250 247.0
92.262236787 218.0
92.295659324 245.0
92.329081862 247.0
92.362504399 245.0
92.395926936 258.0
92.429349473 261.0
92.462772011 294.0
92.496194548 298.0
92.529617085 306.0
92.563039622 296.0
92.596462160 331.0
92.629884697 324.0
92.663307234 300.0
92.696729771 320.0
92.730152308 366.0
92.763574846 367.0
92.796997383 372.0
92.830419920 364.0
92.863842457 367.0
92.897264995 392.0
92.930687532 362.0
92.964110069 408.0
92.997532606 394.0
93.030955144 375.0
93.064377681 355.0
93.097800218 404.0
93.131222755 383.0
93.164645293 450.0
93.198067830 440.0
93.231490367 481.0
93.264912904 452.0
93.298335442 495.0
93.331757979 494.0
93.365180516 498.0
93.398603053 570.0
93.432025591 696.0
93.465448128 876.0
93.498870665 977.0
93.532293202 1077.0
93.565715740 1284.0
93.599138277 1202.0
93.632560814 1274.0
93.665983351 1268.0
93.699405889 1229.0
93.732828426 1271.0
93.766250963 1419.0
93.799673500 1633.0
93.833096037 2021.0
93.866518575 2530.0
93.899941112 3531.0
93.933363649 4960.0
93.966786186 7746.0
94.000208724 14300.0
94.033631261 33425.0
94.067053798 98144.0
94.100476335 143523.0
94.133898873 65771.0
94.167321410 26132.0
94.200743947 12703.0
94.234166484 8464.0
94.267589022 7657.0
94.301011559 9988.0
94.334434096 18777.0
94.367856633 48123.0
94.401279171 76029.0
94.434701708 42055.0
94.468124245 16614.0
94.501546782 7799.0
94.534969320 4616.0
94.568391857 3227.0
94.601814394 2372.0
94.635236931 1917.0
94.668659469 1576.0
94.702082006 1465.0
94.735504543 1187.0
94.768927080 1024.0
94.802349617 913.0
94.835772155 859.0
94.869194692 737.0
94.902617229 754.0
94.936039766 683.0
94.969462304 601.0
95.002884841 544.0
95.036307378 512.0
95.069729915 491.0
95.103152453 483.0
95.136574990 487.0
95.169997527 432.0
95.203420064 390.0
95.236842602 378.0
95.270265139 314.0
95.303687676 363.0
95.337110213 356.0
95.370532751 355.0
95.403955288 302.0
95.437377825 313.0
95.470800362 335.0
95.504222900 282.0
95.537645437 291.0
95.571067974 283.0
95.604490511 320.0
95.637913049 251.0
95.671335586 248.0
95.704758123 280.0
95.738180660 231.0
95.771603198 229.0
95.805025735 229.0
95.838448272 242.0
95.871870809 245.0
95.905293346 218.0
95.938715884 208.0
95.972138421 219.0
96.005560958 214.0
96.038983495 206.0
96.072406033 226.0
96.105828570 186.0
96.139251107 173.0
96.172673644 216.0
96.206096182 228.0
96.239518719 190.0
96.272941256 197.0
96.306363793 152.0
96.339786331 160.0
96.373208868 177.0
96.406631405 181.0
96.440053942 174.0
96.473476480 144.0
96.506899017 177.0
96.540321554 175.0
96.573744091 152.0
96.607166629 130.0
96.640589166 142.0
96.674011703 146.0
96.707434240 144.0
96.740856778 147.0
96.774279315 135.0
96.807701852 144.0
96.841124389 121.0
96.874546926 133.0
96.907969464 123.0
96.941392001 145.0
96.974814538 129.0
97.008237075 137.0
97.041659613 122.0
97.075082150 113.0
97.108504687 111.0
97.141927224 128.0
97.175349762 117.0
97.208772299 129.0
97.242194836 114.0
97.275617373 100.0
97.309039911 109.0
97.342462448 107.0
97.375884985 99.0
97.409307522 102.0
97.442730060 91.0
97.476152597 97.0
97.509575134 87.0
97.542997671 91.0
97.576420209 96.0
97.609842746 79.0
97.643265283 78.0
97.676687820 90.0
97.710110358 86.0
97.743532895 85.0
97.776955432 87.0
97.810377969 69.0
97.843800507 73.0
97.877223044 81.0
97.910645581 99.0
97.944068118 107.0
97.977490655 78.0
98.010913193 81.0
98.044335730 76.0
98.077758267 79.0
98.111180804 75.0
98.144603342 68.0
98.178025879 65.0
98.211448416 64.0
98.244870953 81.0
98.278293491 72.0
98.311716028 57.0
98.345138565 63.0
98.378561102 66.0
98.411983640 61.0
98.445406177 74.0
98.478828714 52.0
98.512251251 63.0
98.545673789 57.0
98.579096326 51.0
98.612518863 61.0
98.645941400 73.0
98.679363938 71.0
98.712786475 52.0
98.746209012 64.0
98.779631549 53.0
98.813054087 48.0
98.846476624 60.0
98.879899161 47.0
98.913321698 53.0
98.946744235 43.0
98.980166773 47.0
99.013589310 58.0
99.047011847 35.0
99.080434384 46.0
99.113856922 49.0
99.147279459 46.0
99.180701996 46.0
99.214124533 41.0
99.247547071 45.0
99.280969608 46.0
99.314392145 58.0
99.347814682 41.0
99.381237220 40.0
99.414659757 41.0
99.448082294 44.0
99.481504831 36.0
99.514927369 40.0
99.548349906 24.0
99.581772443 27.0
99.615194980 29.0
99.648617518 32.0
99.682040055 32.0
99.715462592 39.0
99.748885129 29.0
99.782307667 50.0
99.815730204 34.0
99.849152741 43.0
99.882575278 34.0
99.915997816 31.0
99.949420353 32.0
99.982842890 31.0
