20.002711270 77.0
20.036133807 88.0
20.069556344 82.0
20.102978882 80.0
20.136401419 91.0
20.169823956 65.0
20.203246493 100.0
20.236669031 78.0
20.270091568 72.0
20.303514105 83.0
20.336936642 79.0
20.370359180 77.0
20.403781717 93.0
20.437204254 81.0
20.470626791 90.0
20.504049329 86.0
20.537471866 72.0
20.570894403 68.0
20.604316940 72.0
20.637739478 82.0
20.671162015 76.0
20.704584552 61.0
20.738007089 78.0
20.771429627 72.0
20.804852164 74.0
20.838274701 79.0
20.871697238 78.0
20.905119776 78.0
20.938542313 72.0
20.971964850 97.0
21.005387387 85.0
21.038809925 72.0
21.072232462 75.0
21.105654999 64.0
21.139077536 77.0
21.172500073 71.0
21.205922611 75.0
21.239345148 82.0
21.272767685 61.0
21.306190222 71.0
21.339612760 63.0
21.373035297 78.0
21.406457834 85.0
21.439880371 83.0
21.473302909 74.0
21.506725446 60.0
21.540147983 79.0
21.573570520 62.0
21.606993058 77.0
21.640415595 75.0
21.673838132 75.0
21.707260669 75.0
21.740683207 72.0
21.774105744 66.0
21.807528281 72.0
21.840950818 69.0
21.874373356 66.0
21.907795893 71.0
21.941218430 76.0
21.974640967 81.0
22.008063505 71.0
22.041486042 82.0
22.074908579 65.0
22.108331116 76.0
22.141753653 64.0
22.175176191 63.0
22.208598728 71.0
22.242021265 79.0
22.275443802 82.0
22.308866340 50.0
22.342288877 66.0
22.375711414 61.0
22.409133951 67.0
22.442556489 60.0
22.475979026 54.0
22.509401563 78.0
22.542824100 75.0
22.576246638 63.0
22.609669175 68.0
22.643091712 78.0
22.676514249 61.0
22.709936787 61.0
22.743359324 63.0
22.776781861 48.0
22.810204398 63.0
22.843626936 65.0
22.877049473 62.0
22.910472010 75.0
22.943894547 71.0
22.977317085 60.0
23.010739622 55.0
23.044162159 72.0
23.077584696 69.0
23.111007234 60.0
23.144429771 44.0
23.177852308 86.0
23.211274845 79.0
23.244697382 53.0
23.278119920 55.0
23.311542457 64.0
23.344964994 51.0
23.378387531 47.0
23.411810069 55.0
23.445232606 55.0
23.478655143 83.0
23.512077680 54.0
23.545500218 53.0
23.578922755 67.0
23.612345292 65.0
23.645767829 68.0
23.679190367 57.0
23.712612904 63.0
23.746035441 55.0
23.779457978 61.0
23.812880516 61.0
23.846303053 53.0
23.879725590 48.0
23.913148127 57.0
23.946570665 58.0
23.979993202 51.0
24.013415739 57.0
24.046838276 50.0
24.080260814 60.0
24.113683351 52.0
24.147105888 58.0
24.180528425 69.0
24.213950962 64.0
24.247373500 69.0
24.280796037 50.0
24.314218574 65.0
24.347641111 60.0
24.381063649 52.0
24.414486186 58.0
24.447908723 78.0
24.481331260 60.0
24.514753798 66.0
24.548176335 53.0
24.581598872 54.0
24.615021409 60.0
24.648443947 50.0
24.681866484 49.0
24.715289021 59.0
24.748711558 54.0
24.782134096 48.0
24.815556633 50.0
24.848979170 54.0
24.882401707 61.0
24.915824245 48.0
24.949246782 60.0
24.982669319 48.0
25.016091856 53.0
25.049514394 45.0
25.082936931 60.0
25.116359468 52.0
25.149782005 61.0
25.183204543 49.0
25.216627080 51.0
25.250049617 60.0
25.283472154 52.0
25.316894691 57.0
25.350317229 57.0
25.383739766 40.0
25.417162303 51.0
25.450584840 49.0
25.484007378 51.0
25.517429915 51.0
25.550852452 54.0
25.584274989 54.0
25.617697527 47.0
25.651120064 44.0
25.684542601 40.0
25.717965138 58.0
25.751387676 47.0
25.784810213 67.0
25.818232750 43.0
25.851655287 58.0
25.885077825 48.0
25.918500362 41.0
25.951922899 45.0
25.985345436 54.0
26.018767974 46.0
26.052190511 43.0
26.085613048 54.0
26.119035585 52.0
26.152458123 62.0
26.185880660 46.0
26.219303197 48.0
26.252725734 52.0
26.286148271 44.0
26.319570809 55.0
26.352993346 49.0
26.386415883 55.0
26.419838420 54.0
26.453260958 40.0
26.486683495 52.0
26.520106032 46.0
26.553528569 35.0
26.586951107 47.0
26.620373644 53.0
26.653796181 31.0
26.687218718 45.0
26.720641256 46.0
26.754063793 43.0
26.787486330 44.0
26.820908867 50.0
26.854331405 50.0
26.887753942 58.0
26.921176479 52.0
26.954599016 46.0
26.988021554 45.0
27.021444091 69.0
27.054866628 51.0
27.088289165 59.0
27.121711703 57.0
27.155134240 48.0
27.188556777 36.0
27.221979314 43.0
27.255401852 49.0
27.288824389 50.0
27.322246926 48.0
27.355669463 48.0
27.389092000 53.0
27.422514538 51.0
27.455937075 48.0
27.489359612 46.0
27.522782149 36.0
27.556204687 50.0
27.589627224 57.0
27.623049761 53.0
27.656472298 43.0
27.689894836 53.0
27.723317373 61.0
27.756739910 40.0
27.790162447 49.0
27.823584985 54.0
27.857007522 45.0
27.890430059 52.0
27.923852596 54.0
27.957275134 37.0
27.990697671 33.0
28.024120208 39.0
28.057542745 47.0
28.090965283 39.0
28.124387820 41.0
28.157810357 47.0
28.191232894 40.0
28.224655432 46.0
28.258077969 37.0
28.291500506 60.0
28.324923043 45.0
28.358345580 43.0
28.391768118 57.0
28.425190655 39.0
28.458613192 58.0
28.492035729 54.0
28.525458267 45.0
28.558880804 55.0
28.592303341 54.0
28.625725878 43.0
28.659148416 43.0
28.692570953 48.0
28.725993490 45.0
28.759416027 45.0
28.792838565 43.0
28.826261102 52.0
28.859683639 55.0
28.893106176 44.0
28.926528714 48.0
28.959951251 49.0
28.993373788 49.0
29.026796325 54.0
29.060218863 43.0
29.093641400 39.0
29.127063937 48.0
29.160486474 27.0
29.193909012 62.0
29.227331549 35.0
29.260754086 51.0
29.294176623 53.0
29.327599161 37.0
29.361021698 61.0
29.394444235 47.0
29.427866772 54.0
29.461289309 59.0
29.494711847 48.0
29.528134384 43.0
29.561556921 44.0
29.594979458 52.0
29.628401996 40.0
29.661824533 52.0
29.695247070 45.0
29.728669607 49.0
29.762092145 62.0
29.795514682 45.0
29.828937219 58.0
29.862359756 47.0
29.895782294 47.0
29.929204831 54.0
29.962627368 37.0
29.996049905 46.0
30.029472443 55.0
30.062894980 45.0
30.096317517 32.0
30.129740054 55.0
30.163162592 48.0
30.196585129 44.0
30.230007666 52.0
30.263430203 39.0
30.296852741 51.0
30.330275278 58.0
30.363697815 50.0
30.397120352 48.0
30.430542889 44.0
30.463965427 59.0
30.497387964 53.0
30.530810501 52.0
30.564233038 43.0
30.597655576 36.0
30.631078113 57.0
30.664500650 50.0
30.697923187 45.0
30.731345725 53.0
30.764768262 44.0
30.798190799 48.0
30.831613336 50.0
30.865035874 40.0
30.898458411 46.0
30.931880948 61.0
30.965303485 65.0
30.998726023 52.0
31.032148560 45.0
31.065571097 59.0
31.098993634 46.0
31.132416172 47.0
31.165838709 46.0
31.199261246 54.0
31.232683783 43.0
31.266106321 54.0
31.299528858 58.0
31.332951395 49.0
31.366373932 57.0
31.399796470 48.0
31.433219007 52.0
31.466641544 57.0
31.500064081 46.0
31.533486618 50.0
31.566909156 53.0
31.600331693 45.0
31.633754230 61.0
31.667176767 47.0
31.700599305 57.0
31.734021842 45.0
31.767444379 48.0
31.800866916 58.0
31.834289454 51.0
31.867711991 57.0
31.901134528 58.0
31.934557065 60.0
31.967979603 55.0
32.001402140 47.0
32.034824677 45.0
32.068247214 63.0
32.101669752 55.0
32.135092289 57.0
32.168514826 63.0
32.201937363 52.0
32.235359901 58.0
32.268782438 53.0
32.302204975 55.0
32.335627512 49.0
32.369050050 55.0
32.402472587 64.0
32.435895124 60.0
32.469317661 61.0
32.502740198 61.0
32.536162736 41.0
32.569585273 63.0
32.603007810 62.0
32.636430347 52.0
32.669852885 75.0
32.703275422 54.0
32.736697959 58.0
32.770120496 73.0
32.803543034 60.0
32.836965571 65.0
32.870388108 68.0
32.903810645 57.0
32.937233183 77.0
32.970655720 77.0
33.004078257 75.0
33.037500794 46.0
33.070923332 64.0
33.104345869 50.0
33.137768406 67.0
33.171190943 63.0
33.204613481 72.0
33.238036018 62.0
33.271458555 65.0
33.304881092 67.0
33.338303630 77.0
33.371726167 69.0
33.405148704 74.0
33.438571241 81.0
33.471993779 81.0
33.505416316 67.0
33.538838853 76.0
33.572261390 76.0
33.605683927 74.0
33.639106465 85.0
33.672529002 91.0
33.705951539 62.0
33.739374076 89.0
33.772796614 77.0
33.806219151 89.0
33.839641688 88.0
33.873064225 107.0
33.906486763 94.0
33.939909300 91.0
33.973331837 89.0
34.006754374 91.0
34.040176912 75.0
34.073599449 87.0
34.107021986 93.0
34.140444523 67.0
34.173867061 95.0
34.207289598 113.0
34.240712135 101.0
34.274134672 93.0
34.307557210 113.0
34.340979747 87.0
34.374402284 107.0
34.407824821 110.0
34.441247359 114.0
34.474669896 109.0
34.508092433 116.0
34.541514970 125.0
34.574937507 122.0
34.608360045 125.0
34.641782582 118.0
34.675205119 117.0
34.708627656 110.0
34.742050194 139.0
34.775472731 149.0
34.808895268 130.0
34.842317805 123.0
34.875740343 131.0
34.909162880 132.0
34.942585417 152.0
34.976007954 131.0
35.009430492 145.0
35.042853029 170.0
35.076275566 159.0
35.109698103 167.0
35.143120641 148.0
35.176543178 191.0
35.209965715 193.0
35.243388252 167.0
35.276810790 194.0
35.310233327 169.0
35.343655864 207.0
35.377078401 191.0
35.410500939 222.0
35.443923476 216.0
35.477346013 199.0
35.510768550 228.0
35.544191088 223.0
35.577613625 250.0
35.611036162 213.0
35.644458699 231.0
35.677881236 237.0
35.711303774 256.0
35.744726311 265.0
35.778148848 247.0
35.811571385 289.0
35.844993923 277.0
35.878416460 254.0
35.911838997 285.0
35.945261534 276.0
35.978684072 297.0
36.012106609 329.0
36.045529146 305.0
36.078951683 339.0
36.112374221 336.0
36.145796758 339.0
36.179219295 312.0
36.212641832 313.0
36.246064370 324.0
36.279486907 315.0
36.312909444 321.0
36.346331981 330.0
36.379754519 348.0
36.413177056 335.0
36.446599593 341.0
36.480022130 330.0
36.513444668 343.0
36.546867205 348.0
36.580289742 311.0
36.613712279 345.0
36.647134816 299.0
36.680557354 333.0
36.713979891 313.0
36.747402428 307.0
36.780824965 315.0
36.814247503 306.0
36.847670040 326.0
36.881092577 302.0
36.914515114 302.0
36.947937652 324.0
36.981360189 327.0
37.014782726 313.0
37.048205263 325.0
37.081627801 314.0
37.115050338 307.0
37.148472875 311.0
37.181895412 284.0
37.215317950 306.0
37.248740487 306.0
37.282163024 313.0
37.315585561 315.0
37.349008099 322.0
37.382430636 330.0
37.415853173 325.0
37.449275710 314.0
37.482698248 335.0
37.516120785 292.0
37.549543322 293.0
37.582965859 326.0
37.616388397 325.0
37.649810934 335.0
37.683233471 360.0
37.716656008 361.0
37.750078545 345.0
37.783501083 358.0
37.816923620 348.0
37.850346157 345.0
37.883768694 376.0
37.917191232 364.0
37.950613769 399.0
37.984036306 423.0
38.017458843 486.0
38.050881381 460.0
38.084303918 496.0
38.117726455 480.0
38.151148992 536.0
38.184571530 499.0
38.217994067 582.0
38.251416604 575.0
38.284839141 625.0
38.318261679 570.0
38.351684216 601.0
38.385106753 595.0
38.418529290 602.0
38.451951828 612.0
38.485374365 652.0
38.518796902 657.0
38.552219439 673.0
38.585641977 708.0
38.619064514 748.0
38.652487051 768.0
38.685909588 805.0
38.719332125 837.0
38.752754663 836.0
38.786177200 864.0
38.819599737 959.0
38.853022274 947.0
38.886444812 907.0
38.919867349 981.0
38.953289886 1020.0
38.986712423 946.0
39.020134961 933.0
39.053557498 908.0
39.086980035 961.0
39.120402572 901.0
39.153825110 897.0
39.187247647 909.0
39.220670184 908.0
39.254092721 913.0
39.287515259 925.0
39.320937796 965.0
39.354360333 917.0
39.387782870 937.0
39.421205408 999.0
39.454627945 1046.0
39.488050482 1069.0
39.521473019 1043.0
39.554895557 1091.0
39.588318094 1032.0
39.621740631 979.0
39.655163168 920.0
39.688585706 985.0
39.722008243 894.0
39.755430780 913.0
39.788853317 823.0
39.822275854 788.0
39.855698392 763.0
39.889120929 708.0
39.922543466 711.0
39.955966003 708.0
39.989388541 700.0
40.022811078 658.0
40.056233615 664.0
40.089656152 684.0
40.123078690 682.0
40.156501227 770.0
40.189923764 734.0
40.223346301 816.0
40.256768839 781.0
40.290191376 799.0
40.323613913 774.0
40.357036450 827.0
40.390458988 792.0
40.423881525 756.0
40.457304062 736.0
40.490726599 724.0
40.524149137 687.0
40.557571674 626.0
40.590994211 560.0
40.624416748 570.0
40.657839286 544.0
40.691261823 460.0
40.724684360 476.0
40.758106897 514.0
40.791529434 510.0
40.824951972 525.0
40.858374509 558.0
40.891797046 561.0
40.925219583 625.0
40.958642121 686.0
40.992064658 701.0
41.025487195 737.0
41.058909732 868.0
41.092332270 834.0
41.125754807 895.0
41.159177344 941.0
41.192599881 940.0
41.226022419 993.0
41.259444956 965.0
41.292867493 941.0
41.326290030 913.0
41.359712568 989.0
41.393135105 1308.0
41.426557642 1599.0
41.459980179 1494.0
41.493402717 1407.0
41.526825254 1353.0
41.560247791 1374.0
41.593670328 1433.0
41.627092866 1543.0
41.660515403 1653.0
41.693937940 1817.0
41.727360477 2122.0
41.760783015 2313.0
41.794205552 2637.0
41.827628089 2934.0
41.861050626 3297.0
41.894473163 3749.0
41.927895701 4129.0
41.961318238 4791.0
41.994740775 5392.0
42.028163312 5992.0
42.061585850 6265.0
42.095008387 7056.0
42.128430924 7528.0
42.161853461 7958.0
42.195275999 8478.0
42.228698536 9023.0
42.262121073 9525.0
42.295543610 9757.0
42.328966148 10204.0
42.362388685 10516.0
42.395811222 10601.0
42.429233759 10967.0
42.462656297 11092.0
42.496078834 11168.0
42.529501371 11289.0
42.562923908 11630.0
42.596346446 11830.0
42.629768983 12307.0
42.663191520 13221.0
42.696614057 15696.0
42.730036595 21217.0
42.763459132 25723.0
42.796881669 28409.0
42.830304206 40569.0
42.863726743 78842.0
42.897149281 170528.0
42.930571818 602432.0
42.963994355 607019.0
42.997416892 170115.0
43.030839430 258886.0
43.064261967 541292.0
43.097684504 147099.0
43.131107041 38588.0
43.164529579 20909.0
43.197952116 13914.0
43.231374653 10634.0
43.264797190 8380.0
43.298219728 6920.0
43.331642265 5936.0
43.365064802 5147.0
43.398487339 4583.0
43.431909877 4028.0
43.465332414 3739.0
43.498754951 3409.0
43.532177488 3300.0
43.565600026 2909.0
43.599022563 2834.0
43.632445100 2664.0
43.665867637 2495.0
43.699290175 2325.0
43.732712712 2253.0
43.766135249 2077.0
43.799557786 1907.0
43.832980324 1853.0
43.866402861 1716.0
43.899825398 1651.0
43.933247935 1611.0
43.966670472 1466.0
44.000093010 1404.0
44.033515547 1288.0
44.066938084 1231.0
44.100360621 1182.0
44.133783159 1101.0
44.167205696 1075.0
44.200628233 1001.0
44.234050770 947.0
44.267473308 921.0
44.300895845 776.0
44.334318382 749.0
44.367740919 751.0
44.401163457 749.0
44.434585994 643.0
44.468008531 634.0
44.501431068 582.0
44.534853606 588.0
44.568276143 528.0
44.601698680 527.0
44.635121217 515.0
44.668543755 445.0
44.701966292 445.0
44.735388829 386.0
44.768811366 363.0
44.802233904 357.0
44.835656441 359.0
44.869078978 341.0
44.902501515 329.0
44.935924052 307.0
44.969346590 250.0
45.002769127 258.0
45.036191664 243.0
45.069614201 246.0
45.103036739 204.0
45.136459276 227.0
45.169881813 205.0
45.203304350 192.0
45.236726888 203.0
45.270149425 173.0
45.303571962 151.0
45.336994499 163.0
45.370417037 158.0
45.403839574 145.0
45.437262111 129.0
45.470684648 124.0
45.504107186 117.0
45.537529723 129.0
45.570952260 138.0
45.604374797 115.0
45.637797335 108.0
45.671219872 127.0
45.704642409 101.0
45.738064946 88.0
45.771487484 119.0
45.804910021 99.0
45.838332558 92.0
45.871755095 87.0
45.905177633 101.0
45.938600170 69.0
45.972022707 86.0
46.005445244 82.0
46.038867781 78.0
46.072290319 85.0
46.105712856 71.0
46.139135393 73.0
46.172557930 78.0
46.205980468 92.0
46.239403005 95.0
46.272825542 102.0
46.306248079 91.0
46.339670617 85.0
46.373093154 86.0
46.406515691 97.0
46.439938228 92.0
46.473360766 94.0
46.506783303 81.0
46.540205840 89.0
46.573628377 76.0
46.607050915 78.0
46.640473452 52.0
46.673895989 68.0
46.707318526 51.0
46.740741064 64.0
46.774163601 73.0
46.807586138 76.0
46.841008675 57.0
46.874431213 68.0
46.907853750 63.0
46.941276287 62.0
46.974698824 69.0
47.008121362 66.0
47.041543899 68.0
47.074966436 71.0
47.108388973 61.0
47.141811510 47.0
47.175234048 38.0
47.208656585 52.0
47.242079122 48.0
47.275501659 41.0
47.308924197 53.0
47.342346734 41.0
47.375769271 46.0
47.409191808 50.0
47.442614346 51.0
47.476036883 45.0
47.509459420 40.0
47.542881957 40.0
47.576304495 43.0
47.609727032 33.0
47.643149569 37.0
47.676572106 31.0
47.709994644 36.0
47.743417181 43.0
47.776839718 32.0
47.810262255 29.0
47.843684793 34.0
47.877107330 35.0
47.910529867 27.0
47.943952404 36.0
47.977374942 38.0
48.010797479 30.0
48.044220016 26.0
48.077642553 35.0
48.111065090 34.0
48.144487628 33.0
48.177910165 29.0
48.211332702 34.0
48.244755239 37.0
48.278177777 32.0
48.311600314 46.0
48.345022851 34.0
48.378445388 46.0
48.411867926 24.0
48.445290463 37.0
48.478713000 25.0
48.512135537 30.0
48.545558075 31.0
48.578980612 30.0
48.612403149 26.0
48.645825686 31.0
48.679248224 30.0
48.712670761 33.0
48.746093298 29.0
48.779515835 26.0
48.812938373 29.0
48.846360910 25.0
48.879783447 18.0
48.913205984 27.0
48.946628522 32.0
48.980051059 32.0
49.013473596 25.0
49.046896133 38.0
49.080318671 30.0
49.113741208 29.0
49.147163745 23.0
49.180586282 18.0
49.214008819 29.0
49.247431357 30.0
49.280853894 22.0
49.314276431 19.0
49.347698968 20.0
49.381121506 19.0
49.414544043 21.0
49.447966580 26.0
49.481389117 23.0
49.514811655 25.0
49.548234192 25.0
49.581656729 20.0
49.615079266 17.0
49.648501804 31.0
49.681924341 19.0
49.715346878 20.0
49.748769415 35.0
49.782191953 21.0
49.815614490 31.0
49.849037027 24.0
49.882459564 25.0
49.915882102 26.0
49.949304639 19.0
49.982727176 18.0
50.016149713 27.0
50.049572251 22.0
50.082994788 20.0
50.116417325 15.0
50.149839862 29.0
50.183262399 24.0
50.216684937 17.0
50.250107474 15.0
50.283530011 20.0
50.316952548 15.0
50.350375086 18.0
50.383797623 19.0
50.417220160 17.0
50.450642697 20.0
50.484065235 13.0
50.517487772 27.0
50.550910309 21.0
50.584332846 19.0
50.617755384 16.0
50.651177921 16.0
50.684600458 23.0
50.718022995 15.0
50.751445533 17.0
50.784868070 15.0
50.818290607 18.0
50.851713144 12.0
50.885135682 19.0
50.918558219 15.0
50.951980756 16.0
50.985403293 15.0
51.018825831 18.0
51.052248368 15.0
51.085670905 21.0
51.119093442 12.0
51.152515980 23.0
51.185938517 16.0
51.219361054 20.0
51.252783591 17.0
51.286206128 16.0
51.319628666 17.0
51.353051203 11.0
51.386473740 17.0
51.419896277 18.0
51.453318815 17.0
51.486741352 16.0
51.520163889 11.0
51.553586426 8.0
51.587008964 24.0
51.620431501 9.0
51.653854038 16.0
51.687276575 13.0
51.720699113 22.0
51.754121650 11.0
51.787544187 17.0
51.820966724 13.0
51.854389262 16.0
51.887811799 20.0
51.921234336 11.0
51.954656873 15.0
51.988079411 20.0
52.021501948 18.0
52.054924485 16.0
52.088347022 15.0
52.121769560 16.0
52.155192097 25.0
52.188614634 16.0
52.222037171 12.0
52.255459708 18.0
52.288882246 20.0
52.322304783 18.0
52.355727320 17.0
52.389149857 6.0
52.422572395 13.0
52.455994932 11.0
52.489417469 10.0
52.522840006 18.0
52.556262544 13.0
52.589685081 13.0
52.623107618 17.0
52.656530155 8.0
52.689952693 24.0
52.723375230 15.0
52.756797767 12.0
52.790220304 8.0
52.823642842 10.0
52.857065379 8.0
52.890487916 11.0
52.923910453 11.0
52.957332991 15.0
52.990755528 11.0
53.024178065 13.0
53.057600602 22.0
53.091023140 4.0
53.124445677 15.0
53.157868214 20.0
53.191290751 10.0
53.224713289 10.0
53.258135826 15.0
53.291558363 11.0
53.324980900 7.0
53.358403437 19.0
53.391825975 11.0
53.425248512 15.0
53.458671049 13.0
53.492093586 19.0
53.525516124 11.0
53.558938661 19.0
53.592361198 12.0
53.625783735 13.0
53.659206273 10.0
53.692628810 7.0
53.726051347 12.0
53.759473884 8.0
53.792896422 8.0
53.826318959 8.0
53.859741496 8.0
53.893164033 12.0
53.926586571 8.0
53.960009108 13.0
53.993431645 13.0
54.026854182 15.0
54.060276720 15.0
54.093699257 13.0
54.127121794 22.0
54.160544331 10.0
54.193966869 13.0
54.227389406 19.0
54.260811943 16.0
54.294234480 16.0
54.327657017 16.0
54.361079555 12.0
54.394502092 10.0
54.427924629 9.0
54.461347166 10.0
54.494769704 10.0
54.528192241 10.0
54.561614778 13.0
54.595037315 13.0
54.628459853 7.0
54.661882390 10.0
54.695304927 12.0
54.728727464 9.0
54.762150002 12.0
54.795572539 11.0
54.828995076 15.0
54.862417613 13.0
54.895840151 18.0
54.929262688 16.0
54.962685225 11.0
54.996107762 10.0
55.029530300 12.0
55.062952837 8.0
55.096375374 12.0
55.129797911 10.0
55.163220449 11.0
55.196642986 12.0
55.230065523 12.0
55.263488060 19.0
55.296910598 11.0
55.330333135 10.0
55.363755672 16.0
55.397178209 12.0
55.430600746 13.0
55.464023284 9.0
55.497445821 11.0
55.530868358 8.0
55.564290895 16.0
55.597713433 6.0
55.631135970 11.0
55.664558507 11.0
55.697981044 15.0
55.731403582 7.0
55.764826119 15.0
55.798248656 9.0
55.831671193 12.0
55.865093731 10.0
55.898516268 12.0
55.931938805 11.0
55.965361342 9.0
55.998783880 16.0
56.032206417 7.0
56.065628954 8.0
56.099051491 11.0
56.132474029 10.0
56.165896566 9.0
56.199319103 7.0
56.232741640 19.0
56.266164178 7.0
56.299586715 12.0
56.333009252 11.0
56.366431789 6.0
56.399854326 9.0
56.433276864 5.0
56.466699401 13.0
56.500121938 10.0
56.533544475 12.0
56.566967013 16.0
56.600389550 11.0
56.633812087 8.0
56.667234624 13.0
56.700657162 6.0
56.734079699 12.0
56.767502236 12.0
56.800924773 15.0
56.834347311 10.0
56.867769848 9.0
56.901192385 15.0
56.934614922 12.0
56.968037460 9.0
57.001459997 12.0
57.034882534 10.0
57.068305071 10.0
57.101727609 11.0
57.135150146 10.0
57.168572683 11.0
57.201995220 12.0
57.235417758 7.0
57.268840295 12.0
57.302262832 15.0
57.335685369 9.0
57.369107907 20.0
57.402530444 9.0
57.435952981 10.0
57.469375518 16.0
57.502798055 8.0
57.536220593 13.0
57.569643130 5.0
57.603065667 15.0
57.636488204 15.0
57.669910742 12.0
57.703333279 9.0
57.736755816 13.0
57.770178353 7.0
57.803600891 17.0
57.837023428 11.0
57.870445965 15.0
57.903868502 9.0
57.937291040 9.0
57.970713577 16.0
58.004136114 7.0
58.037558651 11.0
58.070981189 12.0
58.104403726 5.0
58.137826263 8.0
58.171248800 15.0
58.204671338 9.0
58.238093875 15.0
58.271516412 10.0
58.304938949 4.0
58.338361487 16.0
58.371784024 11.0
58.405206561 10.0
58.438629098 11.0
58.472051635 12.0
58.505474173 10.0
58.538896710 17.0
58.572319247 8.0
58.605741784 15.0
58.639164322 12.0
58.672586859 10.0
58.706009396 8.0
58.739431933 13.0
58.772854471 5.0
58.806277008 5.0
58.839699545 13.0
58.873122082 9.0
58.906544620 12.0
58.939967157 5.0
58.973389694 18.0
59.006812231 10.0
59.040234769 6.0
59.073657306 13.0
59.107079843 16.0
59.140502380 13.0
59.173924918 9.0
59.207347455 16.0
59.240769992 9.0
59.274192529 13.0
59.307615067 13.0
59.341037604 11.0
59.374460141 8.0
59.407882678 15.0
59.441305216 12.0
59.474727753 15.0
59.508150290 11.0
59.541572827 9.0
59.574995364 12.0
59.608417902 15.0
59.641840439 7.0
59.675262976 7.0
59.708685513 19.0
59.742108051 7.0
59.775530588 5.0
59.808953125 7.0
59.842375662 10.0
59.875798200 11.0
59.909220737 10.0
59.942643274 9.0
59.976065811 13.0
60.009488349 3.0
60.042910886 15.0
60.076333423 9.0
60.109755960 13.0
60.143178498 11.0
60.176601035 8.0
60.210023572 16.0
60.243446109 15.0
60.276868647 12.0
60.310291184 13.0
60.343713721 18.0
60.377136258 12.0
60.410558796 8.0
60.443981333 8.0
60.477403870 5.0
60.510826407 12.0
60.544248944 8.0
60.577671482 9.0
60.611094019 12.0
60.644516556 16.0
60.677939093 6.0
60.711361631 16.0
60.744784168 6.0
60.778206705 13.0
60.811629242 7.0
60.845051780 11.0
60.878474317 13.0
60.911896854 6.0
60.945319391 9.0
60.978741929 6.0
61.012164466 9.0
61.045587003 9.0
61.079009540 15.0
61.112432078 5.0
61.145854615 10.0
61.179277152 9.0
61.212699689 7.0
61.246122227 8.0
61.279544764 3.0
61.312967301 4.0
61.346389838 8.0
61.379812376 13.0
61.413234913 7.0
61.446657450 13.0
61.480079987 15.0
61.513502525 6.0
61.546925062 13.0
61.580347599 11.0
61.613770136 11.0
61.647192673 7.0
61.680615211 5.0
61.714037748 9.0
61.747460285 10.0
61.780882822 12.0
61.814305360 13.0
61.847727897 10.0
61.881150434 13.0
61.914572971 7.0
61.947995509 16.0
61.981418046 9.0
62.014840583 13.0
62.048263120 12.0
62.081685658 9.0
62.115108195 8.0
62.148530732 16.0
62.181953269 13.0
62.215375807 19.0
62.248798344 7.0
62.282220881 15.0
62.315643418 18.0
62.349065956 11.0
62.382488493 15.0
62.415911030 11.0
62.449333567 10.0
62.482756105 7.0
62.516178642 9.0
62.549601179 13.0
62.583023716 5.0
62.616446253 9.0
62.649868791 7.0
62.683291328 16.0
62.716713865 6.0
62.750136402 9.0
62.783558940 13.0
62.816981477 20.0
62.850404014 8.0
62.883826551 7.0
62.917249089 17.0
62.950671626 15.0
62.984094163 7.0
63.017516700 11.0
63.050939238 6.0
63.084361775 11.0
63.117784312 8.0
63.151206849 6.0
63.184629387 8.0
63.218051924 6.0
63.251474461 10.0
63.284896998 11.0
63.318319536 10.0
63.351742073 11.0
63.385164610 6.0
63.418587147 12.0
63.452009685 20.0
63.485432222 11.0
63.518854759 6.0
63.552277296 12.0
63.585699834 8.0
63.619122371 7.0
63.652544908 12.0
63.685967445 7.0
63.719389982 8.0
63.752812520 12.0
63.786235057 8.0
63.819657594 6.0
63.853080131 8.0
63.886502669 9.0
63.919925206 6.0
63.953347743 7.0
63.986770280 12.0
64.020192818 13.0
64.053615355 15.0
64.087037892 9.0
64.120460429 7.0
64.153882967 10.0
64.187305504 10.0
64.220728041 8.0
64.254150578 10.0
64.287573116 10.0
64.320995653 17.0
64.354418190 4.0
64.387840727 7.0
64.421263265 11.0
64.454685802 10.0
64.488108339 12.0
64.521530876 8.0
64.554953414 8.0
64.588375951 11.0
64.621798488 12.0
64.655221025 13.0
64.688643562 11.0
64.722066100 10.0
64.755488637 12.0
64.788911174 9.0
64.822333711 6.0
64.855756249 8.0
64.889178786 6.0
64.922601323 12.0
64.956023860 12.0
64.989446398 8.0
65.022868935 8.0
65.056291472 9.0
65.089714009 12.0
65.123136547 5.0
65.156559084 8.0
65.189981621 10.0
65.223404158 9.0
65.256826696 11.0
65.290249233 5.0
65.323671770 9.0
65.357094307 10.0
65.390516845 7.0
65.423939382 6.0
65.457361919 11.0
65.490784456 6.0
65.524206994 10.0
65.557629531 19.0
65.591052068 11.0
65.624474605 15.0
65.657897143 12.0
65.691319680 10.0
65.724742217 10.0
65.758164754 10.0
65.791587291 11.0
65.825009829 16.0
65.858432366 17.0
65.891854903 11.0
65.925277440 7.0
65.958699978 7.0
65.992122515 12.0
66.025545052 7.0
66.058967589 7.0
66.092390127 8.0
66.125812664 9.0
66.159235201 9.0
66.192657738 7.0
66.226080276 9.0
66.259502813 9.0
66.292925350 10.0
66.326347887 7.0
66.359770425 8.0
66.393192962 7.0
66.426615499 12.0
66.460038036 10.0
66.493460574 7.0
66.526883111 9.0
66.560305648 10.0
66.593728185 10.0
66.627150723 8.0
66.660573260 8.0
66.693995797 11.0
66.727418334 6.0
66.760840871 10.0
66.794263409 10.0
66.827685946 11.0
66.861108483 8.0
66.894531020 15.0
66.927953558 5.0
66.961376095 15.0
66.994798632 9.0
67.028221169 9.0
67.061643707 10.0
67.095066244 6.0
67.128488781 9.0
67.161911318 12.0
67.195333856 7.0
67.228756393 11.0
67.262178930 6.0
67.295601467 9.0
67.329024005 9.0
67.362446542 12.0
67.395869079 9.0
67.429291616 7.0
67.462714154 11.0
67.496136691 16.0
67.529559228 10.0
67.562981765 8.0
67.596404303 10.0
67.629826840 9.0
67.663249377 8.0
67.696671914 10.0
67.730094452 8.0
67.763516989 9.0
67.796939526 7.0
67.830362063 5.0
67.863784600 9.0
67.897207138 13.0
67.930629675 11.0
67.964052212 13.0
67.997474749 13.0
68.030897287 17.0
68.064319824 11.0
68.097742361 8.0
68.131164898 9.0
68.164587436 13.0
68.198009973 11.0
68.231432510 8.0
68.264855047 8.0
68.298277585 9.0
68.331700122 7.0
68.365122659 4.0
68.398545196 12.0
68.431967734 8.0
68.465390271 2.0
68.498812808 6.0
68.532235345 11.0
68.565657883 7.0
68.599080420 9.0
68.632502957 12.0
68.665925494 9.0
68.699348032 12.0
68.732770569 6.0
68.766193106 6.0
68.799615643 8.0
68.833038180 13.0
68.866460718 5.0
68.899883255 7.0
68.933305792 10.0
68.966728329 13.0
69.000150867 22.0
69.033573404 11.0
69.066995941 12.0
69.100418478 7.0
69.133841016 6.0
69.167263553 12.0
69.200686090 11.0
69.234108627 9.0
69.267531165 9.0
69.300953702 13.0
69.334376239 8.0
69.367798776 16.0
69.401221314 6.0
69.434643851 6.0
69.468066388 10.0
69.501488925 8.0
69.534911463 15.0
69.568334000 8.0
69.601756537 13.0
69.635179074 13.0
69.668601612 17.0
69.702024149 10.0
69.735446686 9.0
69.768869223 8.0
69.802291761 11.0
69.835714298 8.0
69.869136835 22.0
69.902559372 8.0
69.935981909 6.0
69.969404447 18.0
70.002826984 8.0
70.036249521 7.0
70.069672058 12.0
70.103094596 8.0
70.136517133 8.0
70.169939670 11.0
70.203362207 7.0
70.236784745 17.0
70.270207282 7.0
70.303629819 5.0
70.337052356 11.0
70.370474894 11.0
70.403897431 6.0
70.437319968 15.0
70.470742505 6.0
70.504165043 12.0
70.537587580 15.0
70.571010117 15.0
70.604432654 9.0
70.637855192 15.0
70.671277729 7.0
70.704700266 9.0
70.738122803 11.0
70.771545341 15.0
70.804967878 7.0
70.838390415 10.0
70.871812952 12.0
70.905235489 8.0
70.938658027 8.0
70.972080564 13.0
71.005503101 12.0
71.038925638 6.0
71.072348176 13.0
71.105770713 4.0
71.139193250 10.0
71.172615787 7.0
71.206038325 15.0
71.239460862 5.0
71.272883399 12.0
71.306305936 9.0
71.339728474 15.0
71.373151011 6.0
71.406573548 9.0
71.439996085 10.0
71.473418623 11.0
71.506841160 11.0
71.540263697 6.0
71.573686234 6.0
71.607108772 7.0
71.640531309 11.0
71.673953846 20.0
71.707376383 12.0
71.740798921 11.0
71.774221458 7.0
71.807643995 8.0
71.841066532 9.0
71.874489070 7.0
71.907911607 12.0
71.941334144 10.0
71.974756681 17.0
72.008179218 13.0
72.041601756 7.0
72.075024293 8.0
72.108446830 16.0
72.141869367 8.0
72.175291905 15.0
72.208714442 13.0
72.242136979 10.0
72.275559516 12.0
72.308982054 11.0
72.342404591 9.0
72.375827128 7.0
72.409249665 10.0
72.442672203 10.0
72.476094740 9.0
72.509517277 12.0
72.542939814 10.0
72.576362352 15.0
72.609784889 10.0
72.643207426 11.0
72.676629963 19.0
72.710052501 13.0
72.743475038 9.0
72.776897575 10.0
72.810320112 20.0
72.843742650 13.0
72.877165187 12.0
72.910587724 15.0
72.944010261 13.0
72.977432798 9.0
73.010855336 12.0
73.044277873 17.0
73.077700410 7.0
73.111122947 11.0
73.144545485 16.0
73.177968022 9.0
73.211390559 7.0
73.244813096 10.0
73.278235634 12.0
73.311658171 8.0
73.345080708 10.0
73.378503245 8.0
73.411925783 8.0
73.445348320 13.0
73.478770857 9.0
73.512193394 6.0
73.545615932 10.0
73.579038469 9.0
73.612461006 16.0
73.645883543 9.0
73.679306081 9.0
73.712728618 7.0
73.746151155 15.0
73.779573692 11.0
73.812996230 11.0
73.846418767 3.0
73.879841304 13.0
73.913263841 9.0
73.946686379 5.0
73.980108916 13.0
74.013531453 11.0
74.046953990 13.0
74.080376527 15.0
74.113799065 10.0
74.147221602 8.0
74.180644139 8.0
74.214066676 6.0
74.247489214 10.0
74.280911751 12.0
74.314334288 12.0
74.347756825 13.0
74.381179363 6.0
74.414601900 12.0
74.448024437 16.0
74.481446974 11.0
74.514869512 16.0
74.548292049 9.0
74.581714586 8.0
74.615137123 10.0
74.648559661 13.0
74.681982198 15.0
74.715404735 15.0
74.748827272 8.0
74.782249810 8.0
74.815672347 8.0
74.849094884 6.0
74.882517421 13.0
74.915939959 15.0
74.949362496 13.0
74.982785033 11.0
75.016207570 3.0
75.049630108 7.0
75.083052645 11.0
75.116475182 5.0
75.149897719 9.0
75.183320256 6.0
75.216742794 15.0
75.250165331 16.0
75.283587868 7.0
75.317010405 16.0
75.350432943 10.0
75.383855480 16.0
75.417278017 15.0
75.450700554 10.0
75.484123092 10.0
75.517545629 18.0
75.550968166 11.0
75.584390703 15.0
75.617813241 15.0
75.651235778 11.0
75.684658315 8.0
75.718080852 12.0
75.751503390 11.0
75.784925927 8.0
75.818348464 7.0
75.851771001 17.0
75.885193539 15.0
75.918616076 13.0
75.952038613 8.0
75.985461150 9.0
76.018883688 15.0
76.052306225 7.0
76.085728762 9.0
76.119151299 12.0
76.152573836 15.0
76.185996374 13.0
76.219418911 10.0
76.252841448 12.0
76.286263985 13.0
76.319686523 5.0
76.353109060 7.0
76.386531597 9.0
76.419954134 12.0
76.453376672 9.0
76.486799209 7.0
76.520221746 11.0
76.553644283 19.0
76.587066821 9.0
76.620489358 15.0
76.653911895 9.0
76.687334432 12.0
76.720756970 11.0
76.754179507 11.0
76.787602044 12.0
76.821024581 7.0
76.854447119 15.0
76.887869656 9.0
76.921292193 20.0
76.954714730 13.0
76.988137268 15.0
77.021559805 13.0
77.054982342 12.0
77.088404879 15.0
77.121827417 12.0
77.155249954 17.0
77.188672491 16.0
77.222095028 18.0
77.255517565 17.0
77.288940103 17.0
77.322362640 13.0
77.355785177 15.0
77.389207714 10.0
77.422630252 20.0
77.456052789 9.0
77.489475326 13.0
77.522897863 17.0
77.556320401 13.0
77.589742938 17.0
77.623165475 9.0
77.656588012 8.0
77.690010550 15.0
77.723433087 17.0
77.756855624 15.0
77.790278161 18.0
77.823700699 11.0
77.857123236 13.0
77.890545773 19.0
77.923968310 17.0
77.957390848 21.0
77.990813385 13.0
78.024235922 13.0
78.057658459 15.0
78.091080997 22.0
78.124503534 16.0
78.157926071 11.0
78.191348608 20.0
78.224771145 12.0
78.258193683 13.0
78.291616220 17.0
78.325038757 17.0
78.358461294 11.0
78.391883832 17.0
78.425306369 11.0
78.458728906 15.0
78.492151443 7.0
78.525573981 16.0
78.558996518 12.0
78.592419055 16.0
78.625841592 13.0
78.659264130 11.0
78.692686667 15.0
78.726109204 10.0
78.759531741 12.0
78.792954279 15.0
78.826376816 16.0
78.859799353 21.0
78.893221890 23.0
78.926644428 11.0
78.960066965 18.0
78.993489502 13.0
79.026912039 17.0
79.060334577 19.0
79.093757114 9.0
79.127179651 16.0
79.160602188 16.0
79.194024726 17.0
79.227447263 12.0
79.260869800 13.0
79.294292337 13.0
79.327714874 12.0
79.361137412 15.0
79.394559949 18.0
79.427982486 6.0
79.461405023 13.0
79.494827561 16.0
79.528250098 15.0
79.561672635 21.0
79.595095172 12.0
79.628517710 16.0
79.661940247 8.0
79.695362784 16.0
79.728785321 18.0
79.762207859 13.0
79.795630396 16.0
79.829052933 11.0
79.862475470 18.0
79.895898008 16.0
79.929320545 21.0
79.962743082 16.0
79.996165619 26.0
80.029588157 18.0
80.063010694 12.0
80.096433231 13.0
80.129855768 9.0
80.163278306 15.0
80.196700843 16.0
80.230123380 9.0
80.263545917 13.0
80.296968454 18.0
80.330390992 19.0
80.363813529 9.0
80.397236066 11.0
80.430658603 18.0
80.464081141 11.0
80.497503678 21.0
80.530926215 18.0
80.564348752 15.0
80.597771290 20.0
80.631193827 20.0
80.664616364 16.0
80.698038901 21.0
80.731461439 21.0
80.764883976 23.0
80.798306513 19.0
80.831729050 21.0
80.865151588 16.0
80.898574125 16.0
80.931996662 19.0
80.965419199 25.0
80.998841737 16.0
81.032264274 26.0
81.065686811 22.0
81.099109348 26.0
81.132531886 18.0
81.165954423 17.0
81.199376960 23.0
81.232799497 21.0
81.266222035 17.0
81.299644572 18.0
81.333067109 34.0
81.366489646 26.0
81.399912183 20.0
81.433334721 26.0
81.466757258 18.0
81.500179795 22.0
81.533602332 26.0
81.567024870 20.0
81.600447407 29.0
81.633869944 23.0
81.667292481 27.0
81.700715019 17.0
81.734137556 25.0
81.767560093 23.0
81.800982630 31.0
81.834405168 35.0
81.867827705 30.0
81.901250242 23.0
81.934672779 21.0
81.968095317 24.0
82.001517854 24.0
82.034940391 30.0
82.068362928 22.0
82.101785466 19.0
82.135208003 32.0
82.168630540 18.0
82.202053077 22.0
82.235475615 20.0
82.268898152 23.0
82.302320689 36.0
82.335743226 38.0
82.369165763 31.0
82.402588301 34.0
82.436010838 27.0
82.469433375 23.0
82.502855912 33.0
82.536278450 29.0
82.569700987 33.0
82.603123524 34.0
82.636546061 38.0
82.669968599 41.0
82.703391136 39.0
82.736813673 35.0
82.770236210 36.0
82.803658748 46.0
82.837081285 32.0
82.870503822 32.0
82.903926359 41.0
82.937348897 40.0
82.970771434 33.0
83.004193971 36.0
83.037616508 43.0
83.071039046 37.0
83.104461583 51.0
83.137884120 35.0
83.171306657 46.0
83.204729195 38.0
83.238151732 30.0
83.271574269 37.0
83.304996806 37.0
83.338419344 47.0
83.371841881 48.0
83.405264418 35.0
83.438686955 37.0
83.472109492 45.0
83.505532030 45.0
83.538954567 49.0
83.572377104 52.0
83.605799641 33.0
83.639222179 47.0
83.672644716 30.0
83.706067253 40.0
83.739489790 43.0
83.772912328 47.0
83.806334865 47.0
83.839757402 51.0
83.873179939 35.0
83.906602477 38.0
83.940025014 51.0
83.973447551 45.0
84.006870088 46.0
84.040292626 55.0
84.073715163 45.0
84.107137700 55.0
84.140560237 48.0
84.173982775 50.0
84.207405312 35.0
84.240827849 54.0
84.274250386 40.0
84.307672924 44.0
84.341095461 45.0
84.374517998 45.0
84.407940535 37.0
84.441363072 49.0
84.474785610 60.0
84.508208147 44.0
84.541630684 49.0
84.575053221 57.0
84.608475759 52.0
84.641898296 44.0
84.675320833 43.0
84.708743370 36.0
84.742165908 60.0
84.775588445 43.0
84.809010982 47.0
84.842433519 40.0
84.875856057 60.0
84.909278594 50.0
84.942701131 44.0
84.976123668 41.0
85.009546206 61.0
85.042968743 38.0
85.076391280 50.0
85.109813817 57.0
85.143236355 45.0
85.176658892 60.0
85.210081429 51.0
85.243503966 39.0
85.276926504 61.0
85.310349041 53.0
85.343771578 36.0
85.377194115 53.0
85.410616653 63.0
85.444039190 62.0
85.477461727 31.0
85.510884264 43.0
85.544306801 49.0
85.577729339 48.0
85.611151876 50.0
85.644574413 40.0
85.677996950 44.0
85.711419488 43.0
85.744842025 51.0
85.778264562 45.0
85.811687099 39.0
85.845109637 44.0
85.878532174 27.0
85.911954711 39.0
85.945377248 35.0
85.978799786 36.0
86.012222323 35.0
86.045644860 36.0
86.079067397 53.0
86.112489935 50.0
86.145912472 39.0
86.179335009 30.0
86.212757546 34.0
86.246180084 40.0
86.279602621 32.0
86.313025158 41.0
86.346447695 34.0
86.379870233 46.0
86.413292770 41.0
86.446715307 40.0
86.480137844 36.0
86.513560381 41.0
86.546982919 31.0
86.580405456 45.0
86.613827993 43.0
86.647250530 27.0
86.680673068 31.0
86.714095605 26.0
86.747518142 32.0
86.780940679 45.0
86.814363217 40.0
86.847785754 40.0
86.881208291 44.0
86.914630828 38.0
86.948053366 37.0
86.981475903 25.0
87.014898440 37.0
87.048320977 39.0
87.081743515 30.0
87.115166052 29.0
87.148588589 32.0
87.182011126 26.0
87.215433664 37.0
87.248856201 26.0
87.282278738 36.0
87.315701275 40.0
87.349123813 53.0
87.382546350 29.0
87.415968887 30.0
87.449391424 25.0
87.482813962 32.0
87.516236499 32.0
87.549659036 26.0
87.583081573 44.0
87.616504110 20.0
87.649926648 33.0
87.683349185 30.0
87.716771722 26.0
87.750194259 45.0
87.783616797 33.0
87.817039334 22.0
87.850461871 29.0
87.883884408 29.0
87.917306946 40.0
87.950729483 41.0
87.984152020 33.0
88.017574557 24.0
88.050997095 35.0
88.084419632 31.0
88.117842169 36.0
88.151264706 27.0
88.184687244 37.0
88.218109781 30.0
88.251532318 43.0
88.284954855 26.0
88.318377393 21.0
88.351799930 32.0
88.385222467 25.0
88.418645004 38.0
88.452067542 29.0
88.485490079 37.0
88.518912616 33.0
88.552335153 36.0
88.585757690 33.0
88.619180228 38.0
88.652602765 35.0
88.686025302 35.0
88.719447839 29.0
88.752870377 40.0
88.786292914 29.0
88.819715451 39.0
88.853137988 25.0
88.886560526 27.0
88.919983063 33.0
88.953405600 46.0
88.986828137 29.0
89.020250675 29.0
89.053673212 36.0
89.087095749 36.0
89.120518286 41.0
89.153940824 31.0
89.187363361 48.0
89.220785898 43.0
89.254208435 35.0
89.287630973 32.0
89.321053510 32.0
89.354476047 53.0
89.387898584 44.0
89.421321122 37.0
89.454743659 40.0
89.488166196 49.0
89.521588733 26.0
89.555011271 41.0
89.588433808 43.0
89.621856345 35.0
89.655278882 40.0
89.688701419 49.0
89.722123957 34.0
89.755546494 38.0
89.788969031 44.0
89.822391568 51.0
89.855814106 60.0
89.889236643 77.0
89.922659180 87.0
89.956081717 105.0
89.989504255 118.0
90.022926792 130.0
90.056349329 100.0
90.089771866 132.0
90.123194404 109.0
90.156616941 110.0
90.190039478 110.0
90.223462015 96.0
90.256884553 123.0
90.290307090 105.0
90.323729627 86.0
90.357152164 110.0
90.390574702 106.0
90.423997239 118.0
90.457419776 124.0
90.490842313 121.0
90.524264851 123.0
90.557687388 132.0
90.591109925 130.0
90.624532462 124.0
90.657954999 141.0
90.691377537 130.0
90.724800074 118.0
90.758222611 148.0
90.791645148 123.0
90.825067686 123.0
90.858490223 138.0
90.891912760 167.0
90.925335297 143.0
90.958757835 162.0
90.992180372 159.0
91.025602909 156.0
91.059025446 178.0
91.092447984 180.0
91.125870521 163.0
91.159293058 161.0
91.192715595 192.0
91.226138133 172.0
91.259560670 177.0
91.292983207 201.0
91.326405744 184.0
91.359828282 166.0
91.393250819 198.0
91.426673356 172.0
91.460095893 198.0
91.493518431 204.0
91.526940968 204.0
91.560363505 186.0
91.593786042 199.0
91.627208580 265.0
91.660631117 225.0
91.694053654 220.0
91.727476191 234.0
91.760898728 250.0
91.794321266 263.0
91.827743803 277.0
91.861166340 300.0
91.894588877 301.0
91.928011415 306.0
91.961433952 344.0
91.994856489 327.0
92.028279026 361.0
92.061701564 375.0
92.095124101 400.0
92.128546638 390.0
92.161969175 458.0
92.195391713 422.0
92.228814250 479.0
92.262236787 498.0
92.295659324 494.0
92.329081862 511.0
92.362504399 508.0
92.395926936 502.0
92.429349473 524.0
92.462772011 567.0
92.496194548 586.0
92.529617085 624.0
92.563039622 626.0
92.596462160 665.0
92.629884697 650.0
92.663307234 663.0
92.696729771 630.0
92.730152308 619.0
92.763574846 675.0
92.796997383 714.0
92.830419920 757.0
92.863842457 732.0
92.897264995 738.0
92.930687532 754.0
92.964110069 765.0
92.997532606 741.0
93.030955144 803.0
93.064377681 794.0
93.097800218 797.0
93.131222755 774.0
93.164645293 795.0
93.198067830 848.0
93.231490367 860.0
93.264912904 909.0
93.298335442 958.0
93.331757979 995.0
93.365180516 1099.0
93.398603053 1249.0
93.432025591 1486.0
93.465448128 1804.0
93.498870665 2012.0
93.532293202 2112.0
93.565715740 2254.0
93.599138277 2156.0
93.632560814 2072.0
93.665983351 2079.0
93.699405889 2289.0
93.732828426 2476.0
93.766250963 2930.0
93.799673500 3615.0
93.833096037 4677.0
93.866518575 6352.0
93.899941112 9296.0
93.933363649 15270.0
93.966786186 28502.0
94.000208724 69288.0
94.033631261 199452.0
94.067053798 208176.0
94.100476335 82641.0
94.133898873 33828.0
94.167321410 17503.0
94.200743947 12709.0
94.234166484 12653.0
94.267589022 18011.0
94.301011559 35918.0
94.334434096 94546.0
94.367856633 117892.0
94.401279171 55184.0
94.434701708 21649.0
94.468124245 10508.0
94.501546782 6421.0
94.534969320 4414.0
94.568391857 3379.0
94.601814394 2828.0
94.635236931 2299.0
94.668659469 1892.0
94.702082006 1753.0
94.735504543 1585.0
94.768927080 1337.0
94.802349617 1201.0
94.835772155 1070.0
94.869194692 992.0
94.902617229 948.0
94.936039766 866.0
94.969462304 819.0
95.002884841 842.0
95.036307378 753.0
95.069729915 711.0
95.103152453 721.0
95.136574990 682.0
95.169997527 611.0
95.203420064 567.0
95.236842602 549.0
95.270265139 547.0
95.303687676 495.0
95.337110213 538.0
95.370532751 479.0
95.403955288 480.0
95.437377825 458.0
95.470800362 460.0
95.504222900 426.0
95.537645437 433.0
95.571067974 418.0
95.604490511 375.0
95.637913049 377.0
95.671335586 343.0
95.704758123 359.0
95.738180660 340.0
95.771603198 324.0
95.805025735 352.0
95.838448272 292.0
95.871870809 341.0
95.905293346 326.0
95.938715884 315.0
95.972138421 282.0
96.005560958 259.0
96.038983495 279.0
96.072406033 286.0
96.105828570 286.0
96.139251107 250.0
96.172673644 294.0
96.206096182 262.0
96.239518719 235.0
96.272941256 223.0
96.306363793 236.0
96.339786331 203.0
96.373208868 230.0
96.406631405 208.0
96.440053942 225.0
96.473476480 222.0
96.506899017 195.0
96.540321554 189.0
96.573744091 200.0
96.607166629 174.0
96.640589166 227.0
96.674011703 204.0
96.707434240 183.0
96.740856778 185.0
96.774279315 180.0
96.807701852 164.0
96.841124389 185.0
96.874546926 193.0
96.907969464 173.0
96.941392001 172.0
96.974814538 171.0
97.008237075 165.0
97.041659613 150.0
97.075082150 146.0
97.108504687 150.0
97.141927224 149.0
97.175349762 124.0
97.208772299 137.0
97.242194836 164.0
97.275617373 144.0
97.309039911 159.0
97.342462448 127.0
97.375884985 144.0
97.409307522 131.0
97.442730060 122.0
97.476152597 125.0
97.509575134 116.0
97.542997671 131.0
97.576420209 130.0
97.609842746 122.0
97.643265283 111.0
97.676687820 139.0
97.710110358 108.0
97.743532895 90.0
97.776955432 106.0
97.810377969 103.0
97.843800507 104.0
97.877223044 110.0
97.910645581 83.0
97.944068118 87.0
97.977490655 97.0
98.010913193 86.0
98.044335730 81.0
98.077758267 88.0
98.111180804 88.0
98.144603342 97.0
98.178025879 94.0
98.211448416 92.0
98.244870953 85.0
98.278293491 76.0
98.311716028 88.0
98.345138565 83.0
98.378561102 74.0
98.411983640 82.0
98.445406177 64.0
98.478828714 61.0
98.512251251 54.0
98.545673789 66.0
98.579096326 85.0
98.612518863 51.0
98.645941400 68.0
98.679363938 72.0
98.712786475 54.0
98.746209012 50.0
98.779631549 67.0
98.813054087 64.0
98.846476624 54.0
98.879899161 66.0
98.913321698 63.0
98.946744235 51.0
98.980166773 60.0
99.013589310 71.0
99.047011847 66.0
99.080434384 55.0
99.113856922 66.0
99.147279459 37.0
99.180701996 50.0
99.214124533 63.0
99.247547071 49.0
99.280969608 51.0
99.314392145 41.0
99.347814682 40.0
99.381237220 47.0
99.414659757 45.0
99.448082294 50.0
99.481504831 40.0
99.514927369 46.0
99.548349906 52.0
99.581772443 45.0
99.615194980 39.0
99.648617518 54.0
99.682040055 45.0
99.715462592 31.0
99.748885129 43.0
99.782307667 40.0
99.815730204 39.0
99.849152741 37.0
99.882575278 34.0
99.915997816 31.0
99.949420353 40.0
99.982842890 39.0
