20.002711270 67.0
20.036133807 68.0
20.069556344 92.0
20.102978882 75.0
20.136401419 96.0
20.169823956 90.0
20.203246493 72.0
20.236669031 79.0
20.270091568 82.0
20.303514105 87.0
20.336936642 99.0
20.370359180 80.0
20.403781717 68.0
20.437204254 68.0
20.470626791 77.0
20.504049329 96.0
20.537471866 90.0
20.570894403 92.0
20.604316940 75.0
20.637739478 72.0
20.671162015 77.0
20.704584552 77.0
20.738007089 82.0
20.771429627 97.0
20.804852164 77.0
20.838274701 107.0
20.871697238 81.0
20.905119776 69.0
20.938542313 91.0
20.971964850 63.0
21.005387387 61.0
21.038809925 95.0
21.072232462 74.0
21.105654999 90.0
21.139077536 64.0
21.172500073 78.0
21.205922611 80.0
21.239345148 66.0
21.272767685 77.0
21.306190222 87.0
21.339612760 76.0
21.373035297 59.0
21.406457834 82.0
21.439880371 81.0
21.473302909 63.0
21.506725446 53.0
21.540147983 76.0
21.573570520 77.0
21.606993058 69.0
21.640415595 65.0
21.673838132 80.0
21.707260669 69.0
21.740683207 79.0
21.774105744 68.0
21.807528281 85.0
21.840950818 62.0
21.874373356 69.0
21.907795893 59.0
21.941218430 59.0
21.974640967 66.0
22.008063505 60.0
22.041486042 81.0
22.074908579 58.0
22.108331116 68.0
22.141753653 67.0
22.175176191 64.0
22.208598728 61.0
22.242021265 59.0
22.275443802 80.0
22.308866340 72.0
22.342288877 74.0
22.375711414 71.0
22.409133951 75.0
22.442556489 69.0
22.475979026 72.0
22.509401563 69.0
22.542824100 68.0
22.576246638 75.0
22.609669175 62.0
22.643091712 50.0
22.676514249 74.0
22.709936787 57.0
22.743359324 74.0
22.776781861 67.0
22.810204398 69.0
22.843626936 57.0
22.877049473 54.0
22.910472010 62.0
22.943894547 69.0
22.977317085 53.0
23.010739622 48.0
23.044162159 61.0
23.077584696 46.0
23.111007234 64.0
23.144429771 48.0
23.177852308 64.0
23.211274845 59.0
23.244697382 54.0
23.278119920 46.0
23.311542457 64.0
23.344964994 67.0
23.378387531 48.0
23.411810069 61.0
23.445232606 63.0
23.478655143 46.0
23.512077680 53.0
23.545500218 48.0
23.578922755 55.0
23.612345292 57.0
23.645767829 49.0
23.679190367 59.0
23.712612904 65.0
23.746035441 58.0
23.779457978 64.0
23.812880516 66.0
23.846303053 51.0
23.879725590 49.0
23.913148127 52.0
23.946570665 41.0
23.979993202 53.0
24.013415739 55.0
24.046838276 58.0
24.080260814 61.0
24.113683351 47.0
24.147105888 61.0
24.180528425 52.0
24.213950962 40.0
24.247373500 54.0
24.280796037 61.0
24.314218574 55.0
24.347641111 50.0
24.381063649 54.0
24.414486186 50.0
24.447908723 49.0
24.481331260 43.0
24.514753798 52.0
24.548176335 48.0
24.581598872 51.0
24.615021409 49.0
24.648443947 52.0
24.681866484 60.0
24.715289021 45.0
24.748711558 65.0
24.782134096 62.0
24.815556633 71.0
24.848979170 54.0
24.882401707 47.0
24.915824245 62.0
24.949246782 47.0
24.982669319 41.0
25.016091856 54.0
25.049514394 50.0
25.082936931 49.0
25.116359468 49.0
25.149782005 47.0
25.183204543 40.0
25.216627080 36.0
25.250049617 57.0
25.283472154 50.0
25.316894691 43.0
25.350317229 41.0
25.383739766 49.0
25.417162303 69.0
25.450584840 68.0
25.484007378 58.0
25.517429915 47.0
25.550852452 54.0
25.584274989 38.0
25.617697527 55.0
25.651120064 40.0
25.684542601 40.0
25.717965138 51.0
25.751387676 58.0
25.784810213 61.0
25.818232750 58.0
25.851655287 48.0
25.885077825 53.0
25.918500362 40.0
25.951922899 54.0
25.985345436 47.0
26.018767974 60.0
26.052190511 40.0
26.085613048 48.0
26.119035585 62.0
26.152458123 44.0
26.185880660 41.0
26.219303197 52.0
26.252725734 58.0
26.286148271 68.0
26.319570809 48.0
26.352993346 53.0
26.386415883 50.0
26.419838420 57.0
26.453260958 46.0
26.486683495 39.0
26.520106032 43.0
26.553528569 63.0
26.586951107 40.0
26.620373644 60.0
26.653796181 54.0
26.687218718 50.0
26.720641256 38.0
26.754063793 51.0
26.787486330 41.0
26.820908867 58.0
26.854331405 36.0
26.887753942 49.0
26.921176479 55.0
26.954599016 51.0
26.988021554 34.0
27.021444091 41.0
27.054866628 43.0
27.088289165 45.0
27.121711703 46.0
27.155134240 43.0
27.188556777 54.0
27.221979314 41.0
27.255401852 55.0
27.288824389 53.0
27.322246926 38.0
27.355669463 51.0
27.389092000 65.0
27.422514538 48.0
27.455937075 34.0
27.489359612 40.0
27.522782149 49.0
27.556204687 45.0
27.589627224 29.0
27.623049761 47.0
27.656472298 48.0
27.689894836 39.0
27.723317373 45.0
27.756739910 37.0
27.790162447 55.0
27.823584985 34.0
27.857007522 43.0
27.890430059 37.0
27.923852596 46.0
27.957275134 51.0
27.990697671 46.0
28.024120208 59.0
28.057542745 47.0
28.090965283 41.0
28.124387820 46.0
28.157810357 26.0
28.191232894 45.0
28.224655432 34.0
28.258077969 44.0
28.291500506 57.0
28.324923043 44.0
28.358345580 43.0
28.391768118 35.0
28.425190655 52.0
28.458613192 51.0
28.492035729 36.0
28.525458267 43.0
28.558880804 51.0
28.592303341 50.0
28.625725878 54.0
28.659148416 37.0
28.692570953 40.0
28.725993490 33.0
28.759416027 51.0
28.792838565 45.0
28.826261102 41.0
28.859683639 44.0
28.893106176 45.0
28.926528714 39.0
28.959951251 34.0
28.993373788 37.0
29.026796325 38.0
29.060218863 36.0
29.093641400 39.0
29.127063937 37.0
29.160486474 58.0
29.193909012 47.0
29.227331549 41.0
29.260754086 41.0
29.294176623 38.0
29.327599161 36.0
29.361021698 36.0
29.394444235 37.0
29.427866772 36.0
29.461289309 48.0
29.494711847 38.0
29.528134384 38.0
29.561556921 48.0
29.594979458 40.0
29.628401996 47.0
29.661824533 54.0
29.695247070 35.0
29.728669607 45.0
29.762092145 34.0
29.795514682 43.0
29.828937219 35.0
29.862359756 49.0
29.895782294 39.0
29.929204831 47.0
29.962627368 39.0
29.996049905 50.0
30.029472443 38.0
30.062894980 25.0
30.096317517 36.0
30.129740054 39.0
30.163162592 48.0
30.196585129 50.0
30.230007666 47.0
30.263430203 37.0
30.296852741 39.0
30.330275278 52.0
30.363697815 55.0
30.397120352 39.0
30.430542889 29.0
30.463965427 36.0
30.497387964 34.0
30.530810501 36.0
30.564233038 45.0
30.597655576 47.0
30.631078113 35.0
30.664500650 39.0
30.697923187 33.0
30.731345725 43.0
30.764768262 53.0
30.798190799 35.0
30.831613336 33.0
30.865035874 52.0
30.898458411 35.0
30.931880948 27.0
30.965303485 41.0
30.998726023 40.0
31.032148560 36.0
31.065571097 41.0
31.098993634 32.0
31.132416172 51.0
31.165838709 40.0
31.199261246 45.0
31.232683783 39.0
31.266106321 57.0
31.299528858 48.0
31.332951395 34.0
31.366373932 41.0
31.399796470 45.0
31.433219007 35.0
31.466641544 44.0
31.500064081 57.0
31.533486618 48.0
31.566909156 31.0
31.600331693 52.0
31.633754230 47.0
31.667176767 37.0
31.700599305 49.0
31.734021842 34.0
31.767444379 44.0
31.800866916 53.0
31.834289454 80.0
31.867711991 77.0
31.901134528 67.0
31.934557065 59.0
31.967979603 41.0
32.001402140 37.0
32.034824677 48.0
32.068247214 50.0
32.101669752 39.0
32.135092289 49.0
32.168514826 29.0
32.201937363 39.0
32.235359901 50.0
32.268782438 35.0
32.302204975 39.0
32.335627512 38.0
32.369050050 51.0
32.402472587 39.0
32.435895124 55.0
32.469317661 62.0
32.502740198 68.0
32.536162736 65.0
32.569585273 88.0
32.603007810 66.0
32.636430347 68.0
32.669852885 60.0
32.703275422 47.0
32.736697959 44.0
32.770120496 52.0
32.803543034 36.0
32.836965571 35.0
32.870388108 50.0
32.903810645 52.0
32.937233183 37.0
32.970655720 46.0
33.004078257 45.0
33.037500794 40.0
33.070923332 55.0
33.104345869 67.0
33.137768406 76.0
33.171190943 95.0
33.204613481 88.0
33.238036018 87.0
33.271458555 90.0
33.304881092 67.0
33.338303630 71.0
33.371726167 52.0
33.405148704 43.0
33.438571241 36.0
33.471993779 49.0
33.505416316 46.0
33.538838853 40.0
33.572261390 43.0
33.605683927 44.0
33.639106465 32.0
33.672529002 44.0
33.705951539 57.0
33.739374076 61.0
33.772796614 67.0
33.806219151 120.0
33.839641688 93.0
33.873064225 111.0
33.906486763 94.0
33.939909300 73.0
33.973331837 65.0
34.006754374 47.0
34.040176912 44.0
34.073599449 40.0
34.107021986 40.0
34.140444523 43.0
34.173867061 51.0
34.207289598 36.0
34.240712135 41.0
34.274134672 48.0
34.307557210 36.0
34.340979747 44.0
34.374402284 44.0
34.407824821 47.0
34.441247359 68.0
34.474669896 83.0
34.508092433 96.0
34.541514970 100.0
34.574937507 80.0
34.608360045 71.0
34.641782582 47.0
34.675205119 52.0
34.708627656 41.0
34.742050194 35.0
34.775472731 33.0
34.808895268 38.0
34.842317805 44.0
34.875740343 44.0
34.909162880 24.0
34.942585417 27.0
34.976007954 37.0
35.009430492 46.0
35.042853029 36.0
35.076275566 58.0
35.109698103 62.0
35.143120641 73.0
35.176543178 50.0
35.209965715 67.0
35.243388252 81.0
35.276810790 64.0
35.310233327 45.0
35.343655864 44.0
35.377078401 38.0
35.410500939 29.0
35.443923476 38.0
35.477346013 44.0
35.510768550 26.0
35.544191088 49.0
35.577613625 24.0
35.611036162 40.0
35.644458699 34.0
35.677881236 36.0
35.711303774 30.0
35.744726311 37.0
35.778148848 50.0
35.811571385 48.0
35.844993923 57.0
35.878416460 58.0
35.911838997 54.0
35.945261534 43.0
35.978684072 38.0
36.012106609 40.0
36.045529146 41.0
36.078951683 34.0
36.112374221 30.0
36.145796758 46.0
36.179219295 36.0
36.212641832 29.0
36.246064370 29.0
36.279486907 41.0
36.312909444 34.0
36.346331981 38.0
36.379754519 36.0
36.413177056 36.0
36.446599593 45.0
36.480022130 43.0
36.513444668 53.0
36.546867205 46.0
36.580289742 38.0
36.613712279 35.0
36.647134816 45.0
36.680557354 45.0
36.713979891 30.0
36.747402428 37.0
36.780824965 36.0
36.814247503 37.0
36.847670040 37.0
36.881092577 50.0
36.914515114 43.0
36.947937652 27.0
36.981360189 41.0
37.014782726 45.0
37.048205263 29.0
37.081627801 77.0
37.115050338 52.0
37.148472875 68.0
37.181895412 60.0
37.215317950 57.0
37.248740487 46.0
37.282163024 48.0
37.315585561 50.0
37.349008099 51.0
37.382430636 46.0
37.415853173 44.0
37.449275710 40.0
37.482698248 35.0
37.516120785 37.0
37.549543322 26.0
37.582965859 50.0
37.616388397 50.0
37.649810934 50.0
37.683233471 55.0
37.716656008 54.0
37.750078545 69.0
37.783501083 117.0
37.816923620 122.0
37.850346157 161.0
37.883768694 117.0
37.917191232 99.0
37.950613769 75.0
37.984036306 59.0
38.017458843 52.0
38.050881381 48.0
38.084303918 55.0
38.117726455 52.0
38.151148992 45.0
38.184571530 63.0
38.217994067 64.0
38.251416604 68.0
38.284839141 61.0
38.318261679 48.0
38.351684216 60.0
38.385106753 102.0
38.418529290 172.0
38.451951828 199.0
38.485374365 238.0
38.518796902 303.0
38.552219439 243.0
38.585641977 172.0
38.619064514 173.0
38.652487051 125.0
38.685909588 87.0
38.719332125 49.0
38.752754663 67.0
38.786177200 67.0
38.819599737 59.0
38.853022274 83.0
38.886444812 81.0
38.919867349 94.0
38.953289886 109.0
38.986712423 85.0
39.020134961 113.0
39.053557498 145.0
39.086980035 280.0
39.120402572 479.0
39.153825110 470.0
39.187247647 637.0
39.220670184 503.0
39.254092721 341.0
39.287515259 321.0
39.320937796 257.0
39.354360333 124.0
39.387782870 87.0
39.421205408 91.0
39.454627945 100.0
39.488050482 105.0
39.521473019 113.0
39.554895557 129.0
39.588318094 131.0
39.621740631 149.0
39.655163168 179.0
39.688585706 191.0
39.722008243 264.0
39.755430780 445.0
39.788853317 835.0
39.822275854 950.0
39.855698392 1250.0
39.889120929 940.0
39.922543466 647.0
39.955966003 675.0
39.989388541 480.0
40.022811078 226.0
40.056233615 151.0
40.089656152 137.0
40.123078690 141.0
40.156501227 147.0
40.189923764 180.0
40.223346301 180.0
40.256768839 186.0
40.290191376 220.0
40.323613913 225.0
40.357036450 303.0
40.390458988 417.0
40.423881525 753.0
40.457304062 1368.0
40.490726599 1795.0
40.524149137 2437.0
40.557571674 2107.0
40.590994211 1354.0
40.624416748 1239.0
40.657839286 1074.0
40.691261823 524.0
40.724684360 275.0
40.758106897 218.0
40.791529434 214.0
40.824951972 242.0
40.858374509 256.0
40.891797046 288.0
40.925219583 314.0
40.958642121 413.0
40.992064658 436.0
41.025487195 501.0
41.058909732 711.0
41.092332270 1305.0
41.125754807 2415.0
41.159177344 3115.0
41.192599881 4540.0
41.226022419 4716.0
41.259444956 2783.0
41.292867493 2555.0
41.326290030 2491.0
41.359712568 1393.0
41.393135105 655.0
41.426557642 621.0
41.459980179 883.0
41.493402717 1086.0
41.526825254 1055.0
41.560247791 1087.0
41.593670328 1228.0
41.627092866 1350.0
41.660515403 1554.0
41.693937940 1843.0
41.727360477 2142.0
41.760783015 3095.0
41.794205552 5453.0
41.827628089 7773.0
41.861050626 11387.0
41.894473163 13168.0
41.927895701 8944.0
41.961318238 7137.0
41.994740775 7833.0
42.028163312 5880.0
42.061585850 3687.0
42.095008387 3097.0
42.128430924 3203.0
42.161853461 3538.0
42.195275999 3759.0
42.228698536 4257.0
42.262121073 4639.0
42.295543610 5127.0
42.328966148 5921.0
42.362388685 6893.0
42.395811222 8800.0
42.429233759 14131.0
42.462656297 26012.0
42.496078834 37619.0
42.529501371 43595.0
42.562923908 52296.0
42.596346446 38467.0
42.629768983 26207.0
42.663191520 27559.0
42.696614057 19944.0
42.730036595 11230.0
42.763459132 11327.0
42.796881669 16311.0
42.830304206 18202.0
42.863726743 21157.0
42.897149281 36573.0
42.930571818 83111.0
42.963994355 247594.0
42.997416892 575076.0
43.030839430 276021.0
43.064261967 131798.0
43.097684504 370033.0
43.131107041 312667.0
43.164529579 65394.0
43.197952116 25975.0
43.231374653 16296.0
43.264797190 11470.0
43.298219728 8487.0
43.331642265 6923.0
43.365064802 5838.0
43.398487339 5023.0
43.431909877 4454.0
43.465332414 3996.0
43.498754951 3771.0
43.532177488 3353.0
43.565600026 3193.0
43.599022563 2977.0
43.632445100 2774.0
43.665867637 2632.0
43.699290175 2479.0
43.732712712 2288.0
43.766135249 2150.0
43.799557786 2023.0
43.832980324 2007.0
43.866402861 1868.0
43.899825398 1717.0
43.933247935 1641.0
43.966670472 1545.0
44.000093010 1503.0
44.033515547 1410.0
44.066938084 1334.0
44.100360621 1230.0
44.133783159 1239.0
44.167205696 1140.0
44.200628233 1069.0
44.234050770 993.0
44.267473308 936.0
44.300895845 953.0
44.334318382 868.0
44.367740919 831.0
44.401163457 788.0
44.434585994 751.0
44.468008531 681.0
44.501431068 713.0
44.534853606 693.0
44.568276143 628.0
44.601698680 613.0
44.635121217 592.0
44.668543755 502.0
44.701966292 447.0
44.735388829 450.0
44.768811366 477.0
44.802233904 373.0
44.835656441 363.0
44.869078978 384.0
44.902501515 368.0
44.935924052 330.0
44.969346590 282.0
45.002769127 283.0
45.036191664 260.0
45.069614201 280.0
45.103036739 240.0
45.136459276 261.0
45.169881813 228.0
45.203304350 225.0
45.236726888 202.0
45.270149425 218.0
45.303571962 229.0
45.336994499 208.0
45.370417037 175.0
45.403839574 199.0
45.437262111 164.0
45.470684648 150.0
45.504107186 162.0
45.537529723 151.0
45.570952260 159.0
45.604374797 117.0
45.637797335 117.0
45.671219872 133.0
45.704642409 131.0
45.738064946 128.0
45.771487484 108.0
45.804910021 121.0
45.838332558 100.0
45.871755095 125.0
45.905177633 129.0
45.938600170 131.0
45.972022707 123.0
46.005445244 113.0
46.038867781 87.0
46.072290319 96.0
46.105712856 93.0
46.139135393 82.0
46.172557930 87.0
46.205980468 80.0
46.239403005 88.0
46.272825542 92.0
46.306248079 93.0
46.339670617 95.0
46.373093154 91.0
46.406515691 96.0
46.439938228 115.0
46.473360766 130.0
46.506783303 101.0
46.540205840 99.0
46.573628377 95.0
46.607050915 108.0
46.640473452 102.0
46.673895989 105.0
46.707318526 89.0
46.740741064 93.0
46.774163601 80.0
46.807586138 64.0
46.841008675 61.0
46.874431213 62.0
46.907853750 82.0
46.941276287 77.0
46.974698824 69.0
47.008121362 78.0
47.041543899 69.0
47.074966436 82.0
47.108388973 62.0
47.141811510 55.0
47.175234048 65.0
47.208656585 50.0
47.242079122 54.0
47.275501659 53.0
47.308924197 60.0
47.342346734 58.0
47.375769271 53.0
47.409191808 53.0
47.442614346 48.0
47.476036883 54.0
47.509459420 55.0
47.542881957 43.0
47.576304495 45.0
47.609727032 43.0
47.643149569 34.0
47.676572106 40.0
47.709994644 44.0
47.743417181 45.0
47.776839718 36.0
47.810262255 37.0
47.843684793 39.0
47.877107330 45.0
47.910529867 43.0
47.943952404 41.0
47.977374942 44.0
48.010797479 39.0
48.044220016 39.0
48.077642553 46.0
48.111065090 29.0
48.144487628 55.0
48.177910165 41.0
48.211332702 40.0
48.244755239 21.0
48.278177777 29.0
48.311600314 36.0
48.345022851 37.0
48.378445388 33.0
48.411867926 40.0
48.445290463 29.0
48.478713000 32.0
48.512135537 40.0
48.545558075 37.0
48.578980612 24.0
48.612403149 27.0
48.645825686 25.0
48.679248224 30.0
48.712670761 38.0
48.746093298 30.0
48.779515835 35.0
48.812938373 26.0
48.846360910 23.0
48.879783447 26.0
48.913205984 34.0
48.946628522 24.0
48.980051059 26.0
49.013473596 27.0
49.046896133 31.0
49.080318671 29.0
49.113741208 32.0
49.147163745 33.0
49.180586282 37.0
49.214008819 40.0
49.247431357 21.0
49.280853894 31.0
49.314276431 24.0
49.347698968 18.0
49.381121506 20.0
49.414544043 21.0
49.447966580 23.0
49.481389117 19.0
49.514811655 21.0
49.548234192 27.0
49.581656729 25.0
49.615079266 19.0
49.648501804 15.0
49.681924341 18.0
49.715346878 18.0
49.748769415 23.0
49.782191953 18.0
49.815614490 29.0
49.849037027 29.0
49.882459564 26.0
49.915882102 19.0
49.949304639 26.0
49.982727176 15.0
50.016149713 27.0
50.049572251 21.0
50.082994788 18.0
50.116417325 24.0
50.149839862 13.0
50.183262399 29.0
50.216684937 23.0
50.250107474 21.0
50.283530011 23.0
50.316952548 19.0
50.350375086 17.0
50.383797623 17.0
50.417220160 16.0
50.450642697 21.0
50.484065235 15.0
50.517487772 19.0
50.550910309 18.0
50.584332846 19.0
50.617755384 17.0
50.651177921 21.0
50.684600458 23.0
50.718022995 26.0
50.751445533 21.0
50.784868070 32.0
50.818290607 19.0
50.851713144 24.0
50.885135682 22.0
50.918558219 22.0
50.951980756 26.0
50.985403293 30.0
51.018825831 18.0
51.052248368 11.0
51.085670905 17.0
51.119093442 17.0
51.152515980 27.0
51.185938517 15.0
51.219361054 23.0
51.252783591 21.0
51.286206128 17.0
51.319628666 11.0
51.353051203 13.0
51.386473740 16.0
51.419896277 15.0
51.453318815 21.0
51.486741352 12.0
51.520163889 16.0
51.553586426 18.0
51.587008964 16.0
51.620431501 17.0
51.653854038 16.0
51.687276575 22.0
51.720699113 15.0
51.754121650 31.0
51.787544187 13.0
51.820966724 15.0
51.854389262 25.0
51.887811799 11.0
51.921234336 12.0
51.954656873 16.0
51.988079411 13.0
52.021501948 24.0
52.054924485 15.0
52.088347022 18.0
52.121769560 18.0
52.155192097 16.0
52.188614634 18.0
52.222037171 13.0
52.255459708 25.0
52.288882246 12.0
52.322304783 10.0
52.355727320 13.0
52.389149857 25.0
52.422572395 19.0
52.455994932 19.0
52.489417469 9.0
52.522840006 22.0
52.556262544 12.0
52.589685081 17.0
52.623107618 7.0
52.656530155 11.0
52.689952693 23.0
52.723375230 16.0
52.756797767 15.0
52.790220304 6.0
52.823642842 13.0
52.857065379 15.0
52.890487916 18.0
52.923910453 17.0
52.957332991 19.0
52.990755528 18.0
53.024178065 23.0
53.057600602 15.0
53.091023140 16.0
53.124445677 8.0
53.157868214 15.0
53.191290751 16.0
53.224713289 11.0
53.258135826 19.0
53.291558363 11.0
53.324980900 16.0
53.358403437 7.0
53.391825975 10.0
53.425248512 16.0
53.458671049 16.0
53.492093586 9.0
53.525516124 15.0
53.558938661 18.0
53.592361198 6.0
53.625783735 19.0
53.659206273 12.0
53.692628810 17.0
53.726051347 7.0
53.759473884 17.0
53.792896422 16.0
53.826318959 16.0
53.859741496 13.0
53.893164033 10.0
53.926586571 9.0
53.960009108 15.0
53.993431645 10.0
54.026854182 20.0
54.060276720 13.0
54.093699257 18.0
54.127121794 12.0
54.160544331 10.0
54.193966869 17.0
54.227389406 12.0
54.260811943 17.0
54.294234480 15.0
54.327657017 10.0
54.361079555 15.0
54.394502092 10.0
54.427924629 10.0
54.461347166 10.0
54.494769704 11.0
54.528192241 11.0
54.561614778 10.0
54.595037315 19.0
54.628459853 11.0
54.661882390 7.0
54.695304927 18.0
54.728727464 8.0
54.762150002 13.0
54.795572539 16.0
54.828995076 13.0
54.862417613 16.0
54.895840151 15.0
54.929262688 12.0
54.962685225 9.0
54.996107762 5.0
55.029530300 13.0
55.062952837 12.0
55.096375374 13.0
55.129797911 16.0
55.163220449 16.0
55.196642986 19.0
55.230065523 18.0
55.263488060 16.0
55.296910598 16.0
55.330333135 11.0
55.363755672 7.0
55.397178209 6.0
55.430600746 9.0
55.464023284 10.0
55.497445821 11.0
55.530868358 11.0
55.564290895 22.0
55.597713433 15.0
55.631135970 9.0
55.664558507 15.0
55.697981044 25.0
55.731403582 11.0
55.764826119 15.0
55.798248656 12.0
55.831671193 11.0
55.865093731 18.0
55.898516268 10.0
55.931938805 19.0
55.965361342 5.0
55.998783880 6.0
56.032206417 7.0
56.065628954 15.0
56.099051491 20.0
56.132474029 11.0
56.165896566 11.0
56.199319103 9.0
56.232741640 12.0
56.266164178 7.0
56.299586715 11.0
56.333009252 8.0
56.366431789 22.0
56.399854326 13.0
56.433276864 11.0
56.466699401 17.0
56.500121938 8.0
56.533544475 12.0
56.566967013 16.0
56.600389550 9.0
56.633812087 9.0
56.667234624 15.0
56.700657162 15.0
56.734079699 15.0
56.767502236 13.0
56.800924773 16.0
56.834347311 9.0
56.867769848 11.0
56.901192385 12.0
56.934614922 15.0
56.968037460 12.0
57.001459997 11.0
57.034882534 8.0
57.068305071 16.0
57.101727609 12.0
57.135150146 13.0
57.168572683 11.0
57.201995220 10.0
57.235417758 15.0
57.268840295 7.0
57.302262832 18.0
57.335685369 12.0
57.369107907 15.0
57.402530444 9.0
57.435952981 7.0
57.469375518 9.0
57.502798055 15.0
57.536220593 7.0
57.569643130 16.0
57.603065667 7.0
57.636488204 11.0
57.669910742 13.0
57.703333279 13.0
57.736755816 8.0
57.770178353 13.0
57.803600891 9.0
57.837023428 7.0
57.870445965 8.0
57.903868502 10.0
57.937291040 8.0
57.970713577 16.0
58.004136114 8.0
58.037558651 15.0
58.070981189 11.0
58.104403726 17.0
58.137826263 10.0
58.171248800 7.0
58.204671338 9.0
58.238093875 16.0
58.271516412 7.0
58.304938949 9.0
58.338361487 2.0
58.371784024 13.0
58.405206561 16.0
58.438629098 15.0
58.472051635 9.0
58.505474173 10.0
58.538896710 21.0
58.572319247 6.0
58.605741784 13.0
58.639164322 9.0
58.672586859 12.0
58.706009396 9.0
58.739431933 9.0
58.772854471 10.0
58.806277008 13.0
58.839699545 6.0
58.873122082 10.0
58.906544620 10.0
58.939967157 13.0
58.973389694 10.0
59.006812231 18.0
59.040234769 19.0
59.073657306 9.0
59.107079843 16.0
59.140502380 9.0
59.173924918 11.0
59.207347455 8.0
59.240769992 10.0
59.274192529 9.0
59.307615067 9.0
59.341037604 13.0
59.374460141 17.0
59.407882678 8.0
59.441305216 10.0
59.474727753 17.0
59.508150290 5.0
59.541572827 12.0
59.574995364 11.0
59.608417902 13.0
59.641840439 10.0
59.675262976 7.0
59.708685513 11.0
59.742108051 15.0
59.775530588 3.0
59.808953125 11.0
59.842375662 11.0
59.875798200 11.0
59.909220737 3.0
59.942643274 9.0
59.976065811 9.0
60.009488349 10.0
60.042910886 15.0
60.076333423 8.0
60.109755960 8.0
60.143178498 10.0
60.176601035 16.0
60.210023572 16.0
60.243446109 10.0
60.276868647 12.0
60.310291184 12.0
60.343713721 11.0
60.377136258 17.0
60.410558796 9.0
60.443981333 10.0
60.477403870 6.0
60.510826407 11.0
60.544248944 8.0
60.577671482 21.0
60.611094019 8.0
60.644516556 15.0
60.677939093 10.0
60.711361631 11.0
60.744784168 9.0
60.778206705 11.0
60.811629242 6.0
60.845051780 17.0
60.878474317 22.0
60.911896854 13.0
60.945319391 12.0
60.978741929 11.0
61.012164466 15.0
61.045587003 12.0
61.079009540 11.0
61.112432078 13.0
61.145854615 15.0
61.179277152 11.0
61.212699689 17.0
61.246122227 10.0
61.279544764 17.0
61.312967301 6.0
61.346389838 13.0
61.379812376 7.0
61.413234913 13.0
61.446657450 12.0
61.480079987 6.0
61.513502525 5.0
61.546925062 7.0
61.580347599 13.0
61.613770136 18.0
61.647192673 8.0
61.680615211 10.0
61.714037748 13.0
61.747460285 17.0
61.780882822 17.0
61.814305360 9.0
61.847727897 9.0
61.881150434 10.0
61.914572971 13.0
61.947995509 13.0
61.981418046 8.0
62.014840583 10.0
62.048263120 15.0
62.081685658 8.0
62.115108195 10.0
62.148530732 9.0
62.181953269 10.0
62.215375807 6.0
62.248798344 15.0
62.282220881 11.0
62.315643418 15.0
62.349065956 9.0
62.382488493 12.0
62.415911030 13.0
62.449333567 8.0
62.482756105 9.0
62.516178642 8.0
62.549601179 15.0
62.583023716 11.0
62.616446253 10.0
62.649868791 9.0
62.683291328 9.0
62.716713865 9.0
62.750136402 7.0
62.783558940 11.0
62.816981477 17.0
62.850404014 8.0
62.883826551 9.0
62.917249089 4.0
62.950671626 11.0
62.984094163 11.0
63.017516700 9.0
63.050939238 11.0
63.084361775 7.0
63.117784312 10.0
63.151206849 11.0
63.184629387 17.0
63.218051924 8.0
63.251474461 19.0
63.284896998 4.0
63.318319536 10.0
63.351742073 8.0
63.385164610 2.0
63.418587147 11.0
63.452009685 9.0
63.485432222 13.0
63.518854759 8.0
63.552277296 6.0
63.585699834 12.0
63.619122371 6.0
63.652544908 8.0
63.685967445 10.0
63.719389982 8.0
63.752812520 11.0
63.786235057 9.0
63.819657594 10.0
63.853080131 9.0
63.886502669 10.0
63.919925206 5.0
63.953347743 11.0
63.986770280 9.0
64.020192818 12.0
64.053615355 10.0
64.087037892 8.0
64.120460429 11.0
64.153882967 4.0
64.187305504 9.0
64.220728041 9.0
64.254150578 10.0
64.287573116 11.0
64.320995653 12.0
64.354418190 9.0
64.387840727 7.0
64.421263265 8.0
64.454685802 11.0
64.488108339 12.0
64.521530876 13.0
64.554953414 11.0
64.588375951 6.0
64.621798488 8.0
64.655221025 12.0
64.688643562 9.0
64.722066100 5.0
64.755488637 12.0
64.788911174 7.0
64.822333711 9.0
64.855756249 16.0
64.889178786 9.0
64.922601323 6.0
64.956023860 10.0
64.989446398 9.0
65.022868935 15.0
65.056291472 5.0
65.089714009 16.0
65.123136547 3.0
65.156559084 8.0
65.189981621 6.0
65.223404158 4.0
65.256826696 8.0
65.290249233 10.0
65.323671770 11.0
65.357094307 8.0
65.390516845 16.0
65.423939382 8.0
65.457361919 7.0
65.490784456 5.0
65.524206994 6.0
65.557629531 8.0
65.591052068 8.0
65.624474605 11.0
65.657897143 8.0
65.691319680 9.0
65.724742217 13.0
65.758164754 12.0
65.791587291 13.0
65.825009829 11.0
65.858432366 9.0
65.891854903 10.0
65.925277440 10.0
65.958699978 12.0
65.992122515 10.0
66.025545052 7.0
66.058967589 7.0
66.092390127 17.0
66.125812664 12.0
66.159235201 15.0
66.192657738 10.0
66.226080276 8.0
66.259502813 7.0
66.292925350 10.0
66.326347887 11.0
66.359770425 9.0
66.393192962 10.0
66.426615499 15.0
66.460038036 12.0
66.493460574 4.0
66.526883111 11.0
66.560305648 10.0
66.593728185 6.0
66.627150723 1.0
66.660573260 5.0
66.693995797 7.0
66.727418334 12.0
66.760840871 20.0
66.794263409 9.0
66.827685946 5.0
66.861108483 4.0
66.894531020 10.0
66.927953558 11.0
66.961376095 1.0
66.994798632 8.0
67.028221169 8.0
67.061643707 6.0
67.095066244 11.0
67.128488781 7.0
67.161911318 18.0
67.195333856 7.0
67.228756393 18.0
67.262178930 16.0
67.295601467 10.0
67.329024005 8.0
67.362446542 11.0
67.395869079 9.0
67.429291616 7.0
67.462714154 3.0
67.496136691 4.0
67.529559228 9.0
67.562981765 12.0
67.596404303 7.0
67.629826840 8.0
67.663249377 6.0
67.696671914 15.0
67.730094452 9.0
67.763516989 10.0
67.796939526 9.0
67.830362063 11.0
67.863784600 11.0
67.897207138 15.0
67.930629675 15.0
67.964052212 5.0
67.997474749 11.0
68.030897287 11.0
68.064319824 9.0
68.097742361 10.0
68.131164898 6.0
68.164587436 8.0
68.198009973 15.0
68.231432510 8.0
68.264855047 9.0
68.298277585 9.0
68.331700122 16.0
68.365122659 3.0
68.398545196 15.0
68.431967734 5.0
68.465390271 13.0
68.498812808 12.0
68.532235345 8.0
68.565657883 12.0
68.599080420 11.0
68.632502957 4.0
68.665925494 9.0
68.699348032 11.0
68.732770569 7.0
68.766193106 15.0
68.799615643 6.0
68.833038180 9.0
68.866460718 13.0
68.899883255 6.0
68.933305792 8.0
68.966728329 7.0
69.000150867 8.0
69.033573404 11.0
69.066995941 11.0
69.100418478 9.0
69.133841016 7.0
69.167263553 10.0
69.200686090 10.0
69.234108627 20.0
69.267531165 7.0
69.300953702 8.0
69.334376239 9.0
69.367798776 7.0
69.401221314 6.0
69.434643851 11.0
69.468066388 12.0
69.501488925 10.0
69.534911463 10.0
69.568334000 6.0
69.601756537 7.0
69.635179074 13.0
69.668601612 10.0
69.702024149 7.0
69.735446686 6.0
69.768869223 8.0
69.802291761 13.0
69.835714298 10.0
69.869136835 7.0
69.902559372 15.0
69.935981909 12.0
69.969404447 4.0
70.002826984 10.0
70.036249521 12.0
70.069672058 11.0
70.103094596 5.0
70.136517133 8.0
70.169939670 5.0
70.203362207 10.0
70.236784745 9.0
70.270207282 5.0
70.303629819 10.0
70.337052356 5.0
70.370474894 9.0
70.403897431 13.0
70.437319968 5.0
70.470742505 6.0
70.504165043 10.0
70.537587580 4.0
70.571010117 9.0
70.604432654 13.0
70.637855192 8.0
70.671277729 11.0
70.704700266 5.0
70.738122803 3.0
70.771545341 12.0
70.804967878 11.0
70.838390415 6.0
70.871812952 17.0
70.905235489 10.0
70.938658027 11.0
70.972080564 5.0
71.005503101 6.0
71.038925638 9.0
71.072348176 16.0
71.105770713 16.0
71.139193250 15.0
71.172615787 7.0
71.206038325 10.0
71.239460862 7.0
71.272883399 11.0
71.306305936 15.0
71.339728474 13.0
71.373151011 5.0
71.406573548 5.0
71.439996085 7.0
71.473418623 15.0
71.506841160 9.0
71.540263697 13.0
71.573686234 8.0
71.607108772 10.0
71.640531309 4.0
71.673953846 9.0
71.707376383 9.0
71.740798921 7.0
71.774221458 9.0
71.807643995 11.0
71.841066532 6.0
71.874489070 9.0
71.907911607 12.0
71.941334144 10.0
71.974756681 7.0
72.008179218 11.0
72.041601756 8.0
72.075024293 12.0
72.108446830 13.0
72.141869367 16.0
72.175291905 12.0
72.208714442 13.0
72.242136979 11.0
72.275559516 4.0
72.308982054 11.0
72.342404591 9.0
72.375827128 9.0
72.409249665 10.0
72.442672203 16.0
72.476094740 24.0
72.509517277 5.0
72.542939814 7.0
72.576362352 9.0
72.609784889 5.0
72.643207426 7.0
72.676629963 18.0
72.710052501 8.0
72.743475038 13.0
72.776897575 7.0
72.810320112 15.0
72.843742650 10.0
72.877165187 12.0
72.910587724 11.0
72.944010261 8.0
72.977432798 5.0
73.010855336 8.0
73.044277873 11.0
73.077700410 19.0
73.111122947 13.0
73.144545485 7.0
73.177968022 5.0
73.211390559 9.0
73.244813096 12.0
73.278235634 7.0
73.311658171 11.0
73.345080708 11.0
73.378503245 11.0
73.411925783 8.0
73.445348320 7.0
73.478770857 9.0
73.512193394 8.0
73.545615932 10.0
73.579038469 8.0
73.612461006 11.0
73.645883543 10.0
73.679306081 8.0
73.712728618 8.0
73.746151155 9.0
73.779573692 8.0
73.812996230 12.0
73.846418767 9.0
73.879841304 10.0
73.913263841 4.0
73.946686379 8.0
73.980108916 10.0
74.013531453 8.0
74.046953990 8.0
74.080376527 12.0
74.113799065 12.0
74.147221602 8.0
74.180644139 6.0
74.214066676 7.0
74.247489214 8.0
74.280911751 11.0
74.314334288 7.0
74.347756825 10.0
74.381179363 10.0
74.414601900 6.0
74.448024437 5.0
74.481446974 9.0
74.514869512 8.0
74.548292049 8.0
74.581714586 10.0
74.615137123 10.0
74.648559661 11.0
74.681982198 4.0
74.715404735 10.0
74.748827272 5.0
74.782249810 4.0
74.815672347 4.0
74.849094884 12.0
74.882517421 17.0
74.915939959 8.0
74.949362496 10.0
74.982785033 13.0
75.016207570 16.0
75.049630108 7.0
75.083052645 4.0
75.116475182 13.0
75.149897719 9.0
75.183320256 11.0
75.216742794 9.0
75.250165331 8.0
75.283587868 12.0
75.317010405 8.0
75.350432943 10.0
75.383855480 11.0
75.417278017 13.0
75.450700554 12.0
75.484123092 16.0
75.517545629 13.0
75.550968166 11.0
75.584390703 12.0
75.617813241 16.0
75.651235778 10.0
75.684658315 13.0
75.718080852 12.0
75.751503390 8.0
75.784925927 6.0
75.818348464 19.0
75.851771001 9.0
75.885193539 11.0
75.918616076 6.0
75.952038613 11.0
75.985461150 3.0
76.018883688 10.0
76.052306225 15.0
76.085728762 8.0
76.119151299 12.0
76.152573836 5.0
76.185996374 11.0
76.219418911 7.0
76.252841448 6.0
76.286263985 9.0
76.319686523 9.0
76.353109060 18.0
76.386531597 15.0
76.419954134 17.0
76.453376672 10.0
76.486799209 9.0
76.520221746 8.0
76.553644283 8.0
76.587066821 12.0
76.620489358 6.0
76.653911895 8.0
76.687334432 10.0
76.720756970 6.0
76.754179507 17.0
76.787602044 11.0
76.821024581 8.0
76.854447119 11.0
76.887869656 13.0
76.921292193 15.0
76.954714730 8.0
76.988137268 15.0
77.021559805 8.0
77.054982342 9.0
77.088404879 16.0
77.121827417 10.0
77.155249954 7.0
77.188672491 12.0
77.222095028 11.0
77.255517565 8.0
77.288940103 13.0
77.322362640 12.0
77.355785177 12.0
77.389207714 12.0
77.422630252 16.0
77.456052789 10.0
77.489475326 11.0
77.522897863 4.0
77.556320401 6.0
77.589742938 13.0
77.623165475 11.0
77.656588012 10.0
77.690010550 12.0
77.723433087 12.0
77.756855624 12.0
77.790278161 13.0
77.823700699 6.0
77.857123236 6.0
77.890545773 17.0
77.923968310 10.0
77.957390848 10.0
77.990813385 11.0
78.024235922 10.0
78.057658459 11.0
78.091080997 17.0
78.124503534 10.0
78.157926071 9.0
78.191348608 5.0
78.224771145 10.0
78.258193683 18.0
78.291616220 15.0
78.325038757 12.0
78.358461294 7.0
78.391883832 5.0
78.425306369 9.0
78.458728906 12.0
78.492151443 8.0
78.525573981 9.0
78.558996518 7.0
78.592419055 10.0
78.625841592 8.0
78.659264130 9.0
78.692686667 8.0
78.726109204 12.0
78.759531741 6.0
78.792954279 12.0
78.826376816 16.0
78.859799353 15.0
78.893221890 16.0
78.926644428 11.0
78.960066965 7.0
78.993489502 18.0
79.026912039 12.0
79.060334577 7.0
79.093757114 10.0
79.127179651 15.0
79.160602188 11.0
79.194024726 8.0
79.227447263 9.0
79.260869800 9.0
79.294292337 7.0
79.327714874 3.0
79.361137412 12.0
79.394559949 10.0
79.427982486 11.0
79.461405023 5.0
79.494827561 12.0
79.528250098 17.0
79.561672635 8.0
79.595095172 7.0
79.628517710 8.0
79.661940247 5.0
79.695362784 7.0
79.728785321 13.0
79.762207859 8.0
79.795630396 12.0
79.829052933 15.0
79.862475470 11.0
79.895898008 9.0
79.929320545 10.0
79.962743082 13.0
79.996165619 8.0
80.029588157 15.0
80.063010694 11.0
80.096433231 10.0
80.129855768 13.0
80.163278306 9.0
80.196700843 9.0
80.230123380 13.0
80.263545917 9.0
80.296968454 13.0
80.330390992 8.0
80.363813529 8.0
80.397236066 6.0
80.430658603 5.0
80.464081141 12.0
80.497503678 11.0
80.530926215 18.0
80.564348752 12.0
80.597771290 16.0
80.631193827 12.0
80.664616364 7.0
80.698038901 12.0
80.731461439 16.0
80.764883976 11.0
80.798306513 16.0
80.831729050 5.0
80.865151588 6.0
80.898574125 7.0
80.931996662 18.0
80.965419199 9.0
80.998841737 8.0
81.032264274 17.0
81.065686811 10.0
81.099109348 10.0
81.132531886 8.0
81.165954423 7.0
81.199376960 15.0
81.232799497 15.0
81.266222035 18.0
81.299644572 9.0
81.333067109 12.0
81.366489646 11.0
81.399912183 6.0
81.433334721 10.0
81.466757258 13.0
81.500179795 9.0
81.533602332 16.0
81.567024870 8.0
81.600447407 19.0
81.633869944 11.0
81.667292481 9.0
81.700715019 11.0
81.734137556 12.0
81.767560093 11.0
81.800982630 8.0
81.834405168 12.0
81.867827705 11.0
81.901250242 15.0
81.934672779 9.0
81.968095317 18.0
82.001517854 15.0
82.034940391 15.0
82.068362928 16.0
82.101785466 15.0
82.135208003 17.0
82.168630540 13.0
82.202053077 8.0
82.235475615 12.0
82.268898152 17.0
82.302320689 13.0
82.335743226 10.0
82.369165763 12.0
82.402588301 12.0
82.436010838 11.0
82.469433375 10.0
82.502855912 13.0
82.536278450 13.0
82.569700987 11.0
82.603123524 8.0
82.636546061 11.0
82.669968599 15.0
82.703391136 7.0
82.736813673 16.0
82.770236210 16.0
82.803658748 9.0
82.837081285 8.0
82.870503822 12.0
82.903926359 16.0
82.937348897 13.0
82.970771434 15.0
83.004193971 13.0
83.037616508 16.0
83.071039046 13.0
83.104461583 15.0
83.137884120 11.0
83.171306657 17.0
83.204729195 6.0
83.238151732 15.0
83.271574269 11.0
83.304996806 18.0
83.338419344 6.0
83.371841881 9.0
83.405264418 11.0
83.438686955 21.0
83.472109492 12.0
83.505532030 10.0
83.538954567 11.0
83.572377104 7.0
83.605799641 8.0
83.639222179 12.0
83.672644716 12.0
83.706067253 13.0
83.739489790 9.0
83.772912328 12.0
83.806334865 8.0
83.839757402 12.0
83.873179939 9.0
83.906602477 19.0
83.940025014 13.0
83.973447551 17.0
84.006870088 15.0
84.040292626 20.0
84.073715163 11.0
84.107137700 9.0
84.140560237 15.0
84.173982775 15.0
84.207405312 12.0
84.240827849 15.0
84.274250386 12.0
84.307672924 19.0
84.341095461 7.0
84.374517998 12.0
84.407940535 16.0
84.441363072 20.0
84.474785610 11.0
84.508208147 16.0
84.541630684 11.0
84.575053221 15.0
84.608475759 9.0
84.641898296 17.0
84.675320833 15.0
84.708743370 10.0
84.742165908 12.0
84.775588445 16.0
84.809010982 13.0
84.842433519 16.0
84.875856057 22.0
84.909278594 12.0
84.942701131 11.0
84.976123668 21.0
85.009546206 13.0
85.042968743 15.0
85.076391280 21.0
85.109813817 16.0
85.143236355 17.0
85.176658892 12.0
85.210081429 11.0
85.243503966 17.0
85.276926504 15.0
85.310349041 19.0
85.343771578 13.0
85.377194115 12.0
85.410616653 19.0
85.444039190 13.0
85.477461727 8.0
85.510884264 13.0
85.544306801 10.0
85.577729339 20.0
85.611151876 12.0
85.644574413 19.0
85.677996950 16.0
85.711419488 21.0
85.744842025 12.0
85.778264562 13.0
85.811687099 24.0
85.845109637 17.0
85.878532174 18.0
85.911954711 12.0
85.945377248 16.0
85.978799786 10.0
86.012222323 27.0
86.045644860 16.0
86.079067397 20.0
86.112489935 19.0
86.145912472 21.0
86.179335009 19.0
86.212757546 20.0
86.246180084 24.0
86.279602621 17.0
86.313025158 16.0
86.346447695 21.0
86.379870233 11.0
86.413292770 21.0
86.446715307 22.0
86.480137844 29.0
86.513560381 17.0
86.546982919 15.0
86.580405456 12.0
86.613827993 23.0
86.647250530 22.0
86.680673068 25.0
86.714095605 24.0
86.747518142 20.0
86.780940679 19.0
86.814363217 21.0
86.847785754 20.0
86.881208291 24.0
86.914630828 21.0
86.948053366 17.0
86.981475903 17.0
87.014898440 19.0
87.048320977 17.0
87.081743515 20.0
87.115166052 17.0
87.148588589 22.0
87.182011126 17.0
87.215433664 18.0
87.248856201 16.0
87.282278738 25.0
87.315701275 22.0
87.349123813 21.0
87.382546350 19.0
87.415968887 21.0
87.449391424 24.0
87.482813962 19.0
87.516236499 19.0
87.549659036 20.0
87.583081573 36.0
87.616504110 29.0
87.649926648 21.0
87.683349185 19.0
87.716771722 22.0
87.750194259 26.0
87.783616797 26.0
87.817039334 21.0
87.850461871 22.0
87.883884408 18.0
87.917306946 22.0
87.950729483 26.0
87.984152020 22.0
88.017574557 22.0
88.050997095 32.0
88.084419632 24.0
88.117842169 18.0
88.151264706 23.0
88.184687244 24.0
88.218109781 26.0
88.251532318 24.0
88.284954855 27.0
88.318377393 20.0
88.351799930 16.0
88.385222467 24.0
88.418645004 20.0
88.452067542 29.0
88.485490079 31.0
88.518912616 19.0
88.552335153 27.0
88.585757690 27.0
88.619180228 20.0
88.652602765 36.0
88.686025302 27.0
88.719447839 24.0
88.752870377 35.0
88.786292914 29.0
88.819715451 26.0
88.853137988 29.0
88.886560526 32.0
88.919983063 38.0
88.953405600 36.0
88.986828137 30.0
89.020250675 24.0
89.053673212 36.0
89.087095749 37.0
89.120518286 33.0
89.153940824 23.0
89.187363361 23.0
89.220785898 32.0
89.254208435 34.0
89.287630973 32.0
89.321053510 27.0
89.354476047 27.0
89.387898584 26.0
89.421321122 32.0
89.454743659 35.0
89.488166196 34.0
89.521588733 24.0
89.555011271 39.0
89.588433808 35.0
89.621856345 25.0
89.655278882 40.0
89.688701419 43.0
89.722123957 39.0
89.755546494 32.0
89.788969031 33.0
89.822391568 32.0
89.855814106 38.0
89.889236643 48.0
89.922659180 34.0
89.956081717 62.0
89.989504255 66.0
90.022926792 72.0
90.056349329 74.0
90.089771866 62.0
90.123194404 77.0
90.156616941 51.0
90.190039478 63.0
90.223462015 80.0
90.256884553 54.0
90.290307090 46.0
90.323729627 63.0
90.357152164 58.0
90.390574702 69.0
90.423997239 85.0
90.457419776 82.0
90.490842313 60.0
90.524264851 71.0
90.557687388 65.0
90.591109925 76.0
90.624532462 71.0
90.657954999 71.0
90.691377537 72.0
90.724800074 68.0
90.758222611 91.0
90.791645148 97.0
90.825067686 113.0
90.858490223 106.0
90.891912760 116.0
90.925335297 127.0
90.958757835 113.0
90.992180372 108.0
91.025602909 135.0
91.059025446 159.0
91.092447984 161.0
91.125870521 156.0
91.159293058 149.0
91.192715595 128.0
91.226138133 123.0
91.259560670 123.0
91.292983207 128.0
91.326405744 145.0
91.359828282 125.0
91.393250819 135.0
91.426673356 130.0
91.460095893 114.0
91.493518431 119.0
91.526940968 125.0
91.560363505 149.0
91.593786042 151.0
91.627208580 201.0
91.660631117 229.0
91.694053654 270.0
91.727476191 327.0
91.760898728 315.0
91.794321266 396.0
91.827743803 411.0
91.861166340 422.0
91.894588877 477.0
91.928011415 513.0
91.961433952 681.0
91.994856489 746.0
92.028279026 655.0
92.061701564 540.0
92.095124101 419.0
92.128546638 463.0
92.161969175 367.0
92.195391713 431.0
92.228814250 505.0
92.262236787 532.0
92.295659324 531.0
92.329081862 469.0
92.362504399 380.0
92.395926936 339.0
92.429349473 346.0
92.462772011 327.0
92.496194548 391.0
92.529617085 387.0
92.563039622 470.0
92.596462160 560.0
92.629884697 653.0
92.663307234 688.0
92.696729771 661.0
92.730152308 647.0
92.763574846 627.0
92.796997383 589.0
92.830419920 651.0
92.863842457 793.0
92.897264995 795.0
92.930687532 742.0
92.964110069 641.0
92.997532606 553.0
93.030955144 499.0
93.064377681 517.0
93.097800218 484.0
93.131222755 503.0
93.164645293 577.0
93.198067830 546.0
93.231490367 540.0
93.264912904 469.0
93.298335442 431.0
93.331757979 409.0
93.365180516 413.0
93.398603053 432.0
93.432025591 510.0
93.465448128 602.0
93.498870665 740.0
93.532293202 834.0
93.565715740 869.0
93.599138277 934.0
93.632560814 936.0
93.665983351 867.0
93.699405889 978.0
93.732828426 978.0
93.766250963 1021.0
93.799673500 1287.0
93.833096037 1538.0
93.866518575 2006.0
93.899941112 2712.0
93.933363649 3967.0
93.966786186 6653.0
94.000208724 12574.0
94.033631261 29800.0
94.067053798 84546.0
94.100476335 91902.0
94.133898873 37345.0
94.167321410 15358.0
94.200743947 8286.0
94.234166484 5853.0
94.267589022 5758.0
94.301011559 8063.0
94.334434096 15268.0
94.367856633 39412.0
94.401279171 52807.0
94.434701708 26171.0
94.468124245 10470.0
94.501546782 5014.0
94.534969320 3038.0
94.568391857 2141.0
94.601814394 1636.0
94.635236931 1327.0
94.668659469 1182.0
94.702082006 975.0
94.735504543 890.0
94.768927080 742.0
94.802349617 669.0
94.835772155 623.0
94.869194692 568.0
94.902617229 526.0
94.936039766 488.0
94.969462304 479.0
95.002884841 439.0
95.036307378 400.0
95.069729915 375.0
95.103152453 396.0
95.136574990 348.0
95.169997527 338.0
95.203420064 299.0
95.236842602 322.0
95.270265139 298.0
95.303687676 312.0
95.337110213 312.0
95.370532751 263.0
95.403955288 232.0
95.437377825 292.0
95.470800362 246.0
95.504222900 215.0
95.537645437 220.0
95.571067974 246.0
95.604490511 232.0
95.637913049 222.0
95.671335586 204.0
95.704758123 199.0
95.738180660 199.0
95.771603198 216.0
95.805025735 186.0
95.838448272 200.0
95.871870809 192.0
95.905293346 193.0
95.938715884 202.0
95.972138421 183.0
96.005560958 202.0
96.038983495 175.0
96.072406033 166.0
96.105828570 167.0
96.139251107 161.0
96.172673644 156.0
96.206096182 170.0
96.239518719 153.0
96.272941256 177.0
96.306363793 153.0
96.339786331 138.0
96.373208868 159.0
96.406631405 142.0
96.440053942 136.0
96.473476480 132.0
96.506899017 127.0
96.540321554 135.0
96.573744091 125.0
96.607166629 132.0
96.640589166 133.0
96.674011703 138.0
96.707434240 125.0
96.740856778 89.0
96.774279315 125.0
96.807701852 101.0
96.841124389 119.0
96.874546926 121.0
96.907969464 130.0
96.941392001 109.0
96.974814538 100.0
97.008237075 102.0
97.041659613 103.0
97.075082150 116.0
97.108504687 113.0
97.141927224 109.0
97.175349762 99.0
97.208772299 127.0
97.242194836 97.0
97.275617373 106.0
97.309039911 94.0
97.342462448 86.0
97.375884985 81.0
97.409307522 80.0
97.442730060 81.0
97.476152597 83.0
97.509575134 86.0
97.542997671 61.0
97.576420209 79.0
97.609842746 81.0
97.643265283 79.0
97.676687820 69.0
97.710110358 82.0
97.743532895 87.0
97.776955432 79.0
97.810377969 73.0
97.843800507 76.0
97.877223044 77.0
97.910645581 76.0
97.944068118 73.0
97.977490655 60.0
98.010913193 64.0
98.044335730 69.0
98.077758267 64.0
98.111180804 73.0
98.144603342 78.0
98.178025879 68.0
98.211448416 67.0
98.244870953 60.0
98.278293491 66.0
98.311716028 64.0
98.345138565 58.0
98.378561102 53.0
98.411983640 55.0
98.445406177 62.0
98.478828714 74.0
98.512251251 40.0
98.545673789 54.0
98.579096326 76.0
98.612518863 62.0
98.645941400 59.0
98.679363938 48.0
98.712786475 62.0
98.746209012 45.0
98.779631549 45.0
98.813054087 44.0
98.846476624 53.0
98.879899161 58.0
98.913321698 38.0
98.946744235 49.0
98.980166773 49.0
99.013589310 38.0
99.047011847 48.0
99.080434384 51.0
99.113856922 40.0
99.147279459 45.0
99.180701996 31.0
99.214124533 60.0
99.247547071 52.0
99.280969608 46.0
99.314392145 48.0
99.347814682 37.0
99.381237220 43.0
99.414659757 46.0
99.448082294 32.0
99.481504831 41.0
99.514927369 34.0
99.548349906 47.0
99.581772443 30.0
99.615194980 36.0
99.648617518 34.0
99.682040055 38.0
99.715462592 29.0
99.748885129 36.0
99.782307667 33.0
99.815730204 35.0
99.849152741 33.0
99.882575278 30.0
99.915997816 27.0
99.949420353 44.0
99.982842890 41.0
