20.002711270 64.0
20.036133807 72.0
20.069556344 87.0
20.102978882 90.0
20.136401419 65.0
20.169823956 82.0
20.203246493 78.0
20.236669031 78.0
20.270091568 73.0
20.303514105 89.0
20.336936642 78.0
20.370359180 88.0
20.403781717 68.0
20.437204254 86.0
20.470626791 87.0
20.504049329 62.0
20.537471866 73.0
20.570894403 66.0
20.604316940 95.0
20.637739478 77.0
20.671162015 82.0
20.704584552 86.0
20.738007089 67.0
20.771429627 71.0
20.804852164 82.0
20.838274701 82.0
20.871697238 80.0
20.905119776 69.0
20.938542313 85.0
20.971964850 77.0
21.005387387 78.0
21.038809925 83.0
21.072232462 68.0
21.105654999 73.0
21.139077536 78.0
21.172500073 83.0
21.205922611 62.0
21.239345148 80.0
21.272767685 85.0
21.306190222 81.0
21.339612760 89.0
21.373035297 85.0
21.406457834 75.0
21.439880371 62.0
21.473302909 76.0
21.506725446 74.0
21.540147983 68.0
21.573570520 76.0
21.606993058 77.0
21.640415595 63.0
21.673838132 65.0
21.707260669 54.0
21.740683207 68.0
21.774105744 61.0
21.807528281 54.0
21.840950818 65.0
21.874373356 62.0
21.907795893 67.0
21.941218430 67.0
21.974640967 78.0
22.008063505 63.0
22.041486042 67.0
22.074908579 65.0
22.108331116 69.0
22.141753653 59.0
22.175176191 63.0
22.208598728 72.0
22.242021265 68.0
22.275443802 69.0
22.308866340 61.0
22.342288877 82.0
22.375711414 67.0
22.409133951 53.0
22.442556489 66.0
22.475979026 80.0
22.509401563 74.0
22.542824100 57.0
22.576246638 55.0
22.609669175 60.0
22.643091712 61.0
22.676514249 45.0
22.709936787 62.0
22.743359324 64.0
22.776781861 64.0
22.810204398 55.0
22.843626936 62.0
22.877049473 76.0
22.910472010 61.0
22.943894547 67.0
22.977317085 55.0
23.010739622 63.0
23.044162159 59.0
23.077584696 58.0
23.111007234 59.0
23.144429771 62.0
23.177852308 60.0
23.211274845 53.0
23.244697382 50.0
23.278119920 69.0
23.311542457 67.0
23.344964994 63.0
23.378387531 63.0
23.411810069 57.0
23.445232606 62.0
23.478655143 65.0
23.512077680 59.0
23.545500218 50.0
23.578922755 68.0
23.612345292 55.0
23.645767829 46.0
23.679190367 68.0
23.712612904 59.0
23.746035441 58.0
23.779457978 61.0
23.812880516 69.0
23.846303053 53.0
23.879725590 53.0
23.913148127 54.0
23.946570665 49.0
23.979993202 67.0
24.013415739 57.0
24.046838276 47.0
24.080260814 62.0
24.113683351 46.0
24.147105888 54.0
24.180528425 66.0
24.213950962 58.0
24.247373500 51.0
24.280796037 57.0
24.314218574 46.0
24.347641111 50.0
24.381063649 50.0
24.414486186 64.0
24.447908723 51.0
24.481331260 45.0
24.514753798 50.0
24.548176335 50.0
24.581598872 64.0
24.615021409 58.0
24.648443947 52.0
24.681866484 67.0
24.715289021 62.0
24.748711558 62.0
24.782134096 45.0
24.815556633 52.0
24.848979170 48.0
24.882401707 43.0
24.915824245 57.0
24.949246782 46.0
24.982669319 44.0
25.016091856 43.0
25.049514394 45.0
25.082936931 57.0
25.116359468 49.0
25.149782005 46.0
25.183204543 61.0
25.216627080 57.0
25.250049617 54.0
25.283472154 47.0
25.316894691 47.0
25.350317229 43.0
25.383739766 51.0
25.417162303 55.0
25.450584840 47.0
25.484007378 57.0
25.517429915 43.0
25.550852452 53.0
25.584274989 45.0
25.617697527 41.0
25.651120064 46.0
25.684542601 52.0
25.717965138 37.0
25.751387676 38.0
25.784810213 39.0
25.818232750 51.0
25.851655287 48.0
25.885077825 53.0
25.918500362 53.0
25.951922899 60.0
25.985345436 48.0
26.018767974 48.0
26.052190511 49.0
26.085613048 37.0
26.119035585 57.0
26.152458123 49.0
26.185880660 49.0
26.219303197 47.0
26.252725734 51.0
26.286148271 47.0
26.319570809 54.0
26.352993346 39.0
26.386415883 51.0
26.419838420 38.0
26.453260958 38.0
26.486683495 43.0
26.520106032 43.0
26.553528569 36.0
26.586951107 35.0
26.620373644 60.0
26.653796181 43.0
26.687218718 48.0
26.720641256 45.0
26.754063793 46.0
26.787486330 41.0
26.820908867 57.0
26.854331405 34.0
26.887753942 52.0
26.921176479 34.0
26.954599016 38.0
26.988021554 34.0
27.021444091 54.0
27.054866628 49.0
27.088289165 43.0
27.121711703 32.0
27.155134240 46.0
27.188556777 38.0
27.221979314 44.0
27.255401852 48.0
27.288824389 45.0
27.322246926 46.0
27.355669463 37.0
27.389092000 49.0
27.422514538 44.0
27.455937075 38.0
27.489359612 46.0
27.522782149 52.0
27.556204687 50.0
27.589627224 37.0
27.623049761 48.0
27.656472298 52.0
27.689894836 36.0
27.723317373 45.0
27.756739910 53.0
27.790162447 47.0
27.823584985 46.0
27.857007522 35.0
27.890430059 40.0
27.923852596 49.0
27.957275134 41.0
27.990697671 51.0
28.024120208 38.0
28.057542745 51.0
28.090965283 35.0
28.124387820 49.0
28.157810357 49.0
28.191232894 51.0
28.224655432 54.0
28.258077969 49.0
28.291500506 52.0
28.324923043 41.0
28.358345580 40.0
28.391768118 49.0
28.425190655 44.0
28.458613192 39.0
28.492035729 35.0
28.525458267 45.0
28.558880804 47.0
28.592303341 41.0
28.625725878 40.0
28.659148416 40.0
28.692570953 43.0
28.725993490 33.0
28.759416027 50.0
28.792838565 35.0
28.826261102 37.0
28.859683639 57.0
28.893106176 40.0
28.926528714 52.0
28.959951251 44.0
28.993373788 29.0
29.026796325 40.0
29.060218863 44.0
29.093641400 38.0
29.127063937 34.0
29.160486474 31.0
29.193909012 52.0
29.227331549 37.0
29.260754086 41.0
29.294176623 34.0
29.327599161 35.0
29.361021698 43.0
29.394444235 41.0
29.427866772 40.0
29.461289309 38.0
29.494711847 43.0
29.528134384 41.0
29.561556921 44.0
29.594979458 44.0
29.628401996 53.0
29.661824533 45.0
29.695247070 36.0
29.728669607 40.0
29.762092145 38.0
29.795514682 39.0
29.828937219 34.0
29.862359756 40.0
29.895782294 40.0
29.929204831 43.0
29.962627368 43.0
29.996049905 37.0
30.029472443 36.0
30.062894980 39.0
30.096317517 21.0
30.129740054 41.0
30.163162592 47.0
30.196585129 35.0
30.230007666 43.0
30.263430203 68.0
30.296852741 43.0
30.330275278 34.0
30.363697815 41.0
30.397120352 29.0
30.430542889 44.0
30.463965427 31.0
30.497387964 40.0
30.530810501 37.0
30.564233038 41.0
30.597655576 26.0
30.631078113 38.0
30.664500650 39.0
30.697923187 40.0
30.731345725 48.0
30.764768262 37.0
30.798190799 38.0
30.831613336 45.0
30.865035874 45.0
30.898458411 52.0
30.931880948 34.0
30.965303485 51.0
30.998726023 40.0
31.032148560 32.0
31.065571097 51.0
31.098993634 43.0
31.132416172 36.0
31.165838709 38.0
31.199261246 44.0
31.232683783 46.0
31.266106321 47.0
31.299528858 33.0
31.332951395 44.0
31.366373932 33.0
31.399796470 41.0
31.433219007 37.0
31.466641544 52.0
31.500064081 43.0
31.533486618 51.0
31.566909156 36.0
31.600331693 32.0
31.633754230 35.0
31.667176767 35.0
31.700599305 39.0
31.734021842 52.0
31.767444379 34.0
31.800866916 45.0
31.834289454 46.0
31.867711991 44.0
31.901134528 53.0
31.934557065 48.0
31.967979603 44.0
32.001402140 46.0
32.034824677 52.0
32.068247214 43.0
32.101669752 41.0
32.135092289 37.0
32.168514826 34.0
32.201937363 49.0
32.235359901 36.0
32.268782438 50.0
32.302204975 33.0
32.335627512 52.0
32.369050050 39.0
32.402472587 53.0
32.435895124 43.0
32.469317661 38.0
32.502740198 46.0
32.536162736 46.0
32.569585273 55.0
32.603007810 49.0
32.636430347 46.0
32.669852885 49.0
32.703275422 44.0
32.736697959 44.0
32.770120496 53.0
32.803543034 35.0
32.836965571 50.0
32.870388108 61.0
32.903810645 60.0
32.937233183 49.0
32.970655720 54.0
33.004078257 123.0
33.037500794 293.0
33.070923332 143.0
33.104345869 183.0
33.137768406 151.0
33.171190943 107.0
33.204613481 67.0
33.238036018 73.0
33.271458555 57.0
33.304881092 51.0
33.338303630 60.0
33.371726167 45.0
33.405148704 49.0
33.438571241 50.0
33.471993779 67.0
33.505416316 57.0
33.538838853 52.0
33.572261390 44.0
33.605683927 61.0
33.639106465 35.0
33.672529002 60.0
33.705951539 55.0
33.739374076 44.0
33.772796614 61.0
33.806219151 58.0
33.839641688 51.0
33.873064225 71.0
33.906486763 47.0
33.939909300 54.0
33.973331837 53.0
34.006754374 53.0
34.040176912 78.0
34.073599449 62.0
34.107021986 73.0
34.140444523 64.0
34.173867061 46.0
34.207289598 66.0
34.240712135 61.0
34.274134672 63.0
34.307557210 66.0
34.340979747 65.0
34.374402284 64.0
34.407824821 68.0
34.441247359 74.0
34.474669896 64.0
34.508092433 62.0
34.541514970 54.0
34.574937507 50.0
34.608360045 69.0
34.641782582 68.0
34.675205119 74.0
34.708627656 77.0
34.742050194 73.0
34.775472731 77.0
34.808895268 68.0
34.842317805 79.0
34.875740343 74.0
34.909162880 76.0
34.942585417 85.0
34.976007954 94.0
35.009430492 85.0
35.042853029 82.0
35.076275566 96.0
35.109698103 85.0
35.143120641 85.0
35.176543178 75.0
35.209965715 88.0
35.243388252 97.0
35.276810790 99.0
35.310233327 90.0
35.343655864 92.0
35.377078401 102.0
35.410500939 120.0
35.443923476 120.0
35.477346013 87.0
35.510768550 114.0
35.544191088 100.0
35.577613625 101.0
35.611036162 117.0
35.644458699 117.0
35.677881236 139.0
35.711303774 133.0
35.744726311 122.0
35.778148848 134.0
35.811571385 139.0
35.844993923 125.0
35.878416460 155.0
35.911838997 156.0
35.945261534 174.0
35.978684072 165.0
36.012106609 149.0
36.045529146 135.0
36.078951683 137.0
36.112374221 149.0
36.145796758 159.0
36.179219295 161.0
36.212641832 147.0
36.246064370 169.0
36.279486907 176.0
36.312909444 183.0
36.346331981 187.0
36.379754519 184.0
36.413177056 171.0
36.446599593 188.0
36.480022130 199.0
36.513444668 186.0
36.546867205 174.0
36.580289742 199.0
36.613712279 163.0
36.647134816 180.0
36.680557354 189.0
36.713979891 197.0
36.747402428 201.0
36.780824965 191.0
36.814247503 204.0
36.847670040 199.0
36.881092577 198.0
36.914515114 174.0
36.947937652 199.0
36.981360189 208.0
37.014782726 194.0
37.048205263 193.0
37.081627801 204.0
37.115050338 204.0
37.148472875 202.0
37.181895412 192.0
37.215317950 228.0
37.248740487 190.0
37.282163024 177.0
37.315585561 177.0
37.349008099 214.0
37.382430636 213.0
37.415853173 206.0
37.449275710 169.0
37.482698248 187.0
37.516120785 208.0
37.549543322 188.0
37.582965859 231.0
37.616388397 222.0
37.649810934 191.0
37.683233471 188.0
37.716656008 209.0
37.750078545 185.0
37.783501083 207.0
37.816923620 199.0
37.850346157 203.0
37.883768694 219.0
37.917191232 213.0
37.950613769 197.0
37.984036306 241.0
38.017458843 252.0
38.050881381 235.0
38.084303918 227.0
38.117726455 232.0
38.151148992 275.0
38.184571530 276.0
38.217994067 306.0
38.251416604 260.0
38.284839141 268.0
38.318261679 296.0
38.351684216 314.0
38.385106753 279.0
38.418529290 318.0
38.451951828 315.0
38.485374365 368.0
38.518796902 324.0
38.552219439 384.0
38.585641977 347.0
38.619064514 408.0
38.652487051 370.0
38.685909588 377.0
38.719332125 386.0
38.752754663 404.0
38.786177200 426.0
38.819599737 410.0
38.853022274 417.0
38.886444812 427.0
38.919867349 502.0
38.953289886 460.0
38.986712423 489.0
39.020134961 528.0
39.053557498 536.0
39.086980035 547.0
39.120402572 540.0
39.153825110 507.0
39.187247647 550.0
39.220670184 549.0
39.254092721 556.0
39.287515259 529.0
39.320937796 529.0
39.354360333 510.0
39.387782870 557.0
39.421205408 489.0
39.454627945 525.0
39.488050482 547.0
39.521473019 549.0
39.554895557 511.0
39.588318094 554.0
39.621740631 524.0
39.655163168 550.0
39.688585706 538.0
39.722008243 547.0
39.755430780 547.0
39.788853317 541.0
39.822275854 509.0
39.855698392 521.0
39.889120929 514.0
39.922543466 461.0
39.955966003 473.0
39.989388541 442.0
40.022811078 419.0
40.056233615 416.0
40.089656152 386.0
40.123078690 418.0
40.156501227 389.0
40.189923764 383.0
40.223346301 339.0
40.256768839 412.0
40.290191376 398.0
40.323613913 373.0
40.357036450 395.0
40.390458988 391.0
40.423881525 408.0
40.457304062 390.0
40.490726599 354.0
40.524149137 417.0
40.557571674 392.0
40.590994211 389.0
40.624416748 425.0
40.657839286 364.0
40.691261823 356.0
40.724684360 341.0
40.758106897 319.0
40.791529434 306.0
40.824951972 264.0
40.858374509 274.0
40.891797046 265.0
40.925219583 291.0
40.958642121 264.0
40.992064658 254.0
41.025487195 236.0
41.058909732 282.0
41.092332270 299.0
41.125754807 314.0
41.159177344 354.0
41.192599881 363.0
41.226022419 359.0
41.259444956 383.0
41.292867493 410.0
41.326290030 445.0
41.359712568 482.0
41.393135105 459.0
41.426557642 444.0
41.459980179 468.0
41.493402717 411.0
41.526825254 486.0
41.560247791 445.0
41.593670328 400.0
41.627092866 349.0
41.660515403 352.0
41.693937940 371.0
41.727360477 373.0
41.760783015 378.0
41.794205552 417.0
41.827628089 446.0
41.861050626 529.0
41.894473163 558.0
41.927895701 654.0
41.961318238 780.0
41.994740775 890.0
42.028163312 1107.0
42.061585850 1211.0
42.095008387 1425.0
42.128430924 1555.0
42.161853461 1754.0
42.195275999 2051.0
42.228698536 2220.0
42.262121073 2434.0
42.295543610 2557.0
42.328966148 2760.0
42.362388685 2963.0
42.395811222 3195.0
42.429233759 3252.0
42.462656297 3444.0
42.496078834 3378.0
42.529501371 3486.0
42.562923908 3584.0
42.596346446 3566.0
42.629768983 3579.0
42.663191520 3478.0
42.696614057 3480.0
42.730036595 3250.0
42.763459132 3142.0
42.796881669 3042.0
42.830304206 2822.0
42.863726743 2768.0
42.897149281 2562.0
42.930571818 2405.0
42.963994355 2167.0
42.997416892 2046.0
43.030839430 1760.0
43.064261967 1587.0
43.097684504 1414.0
43.131107041 1219.0
43.164529579 1100.0
43.197952116 935.0
43.231374653 821.0
43.264797190 707.0
43.298219728 601.0
43.331642265 484.0
43.365064802 443.0
43.398487339 370.0
43.431909877 321.0
43.465332414 240.0
43.498754951 266.0
43.532177488 222.0
43.565600026 231.0
43.599022563 173.0
43.632445100 193.0
43.665867637 161.0
43.699290175 179.0
43.732712712 144.0
43.766135249 141.0
43.799557786 132.0
43.832980324 120.0
43.866402861 124.0
43.899825398 134.0
43.933247935 119.0
43.966670472 118.0
44.000093010 97.0
44.033515547 91.0
44.066938084 93.0
44.100360621 81.0
44.133783159 87.0
44.167205696 75.0
44.200628233 75.0
44.234050770 79.0
44.267473308 59.0
44.300895845 55.0
44.334318382 51.0
44.367740919 39.0
44.401163457 47.0
44.434585994 59.0
44.468008531 62.0
44.501431068 46.0
44.534853606 40.0
44.568276143 47.0
44.601698680 41.0
44.635121217 49.0
44.668543755 50.0
44.701966292 31.0
44.735388829 33.0
44.768811366 51.0
44.802233904 48.0
44.835656441 35.0
44.869078978 45.0
44.902501515 30.0
44.935924052 43.0
44.969346590 41.0
45.002769127 29.0
45.036191664 25.0
45.069614201 21.0
45.103036739 20.0
45.136459276 34.0
45.169881813 30.0
45.203304350 25.0
45.236726888 27.0
45.270149425 25.0
45.303571962 24.0
45.336994499 19.0
45.370417037 25.0
45.403839574 20.0
45.437262111 32.0
45.470684648 31.0
45.504107186 27.0
45.537529723 20.0
45.570952260 18.0
45.604374797 20.0
45.637797335 21.0
45.671219872 16.0
45.704642409 25.0
45.738064946 24.0
45.771487484 32.0
45.804910021 16.0
45.838332558 11.0
45.871755095 25.0
45.905177633 15.0
45.938600170 15.0
45.972022707 17.0
46.005445244 12.0
46.038867781 20.0
46.072290319 17.0
46.105712856 11.0
46.139135393 24.0
46.172557930 20.0
46.205980468 21.0
46.239403005 11.0
46.272825542 16.0
46.306248079 17.0
46.339670617 18.0
46.373093154 19.0
46.406515691 21.0
46.439938228 11.0
46.473360766 20.0
46.506783303 13.0
46.540205840 16.0
46.573628377 16.0
46.607050915 12.0
46.640473452 13.0
46.673895989 11.0
46.707318526 10.0
46.740741064 11.0
46.774163601 11.0
46.807586138 16.0
46.841008675 12.0
46.874431213 12.0
46.907853750 8.0
46.941276287 9.0
46.974698824 12.0
47.008121362 15.0
47.041543899 11.0
47.074966436 7.0
47.108388973 12.0
47.141811510 11.0
47.175234048 8.0
47.208656585 11.0
47.242079122 7.0
47.275501659 16.0
47.308924197 18.0
47.342346734 19.0
47.375769271 15.0
47.409191808 8.0
47.442614346 16.0
47.476036883 16.0
47.509459420 7.0
47.542881957 9.0
47.576304495 15.0
47.609727032 13.0
47.643149569 6.0
47.676572106 15.0
47.709994644 23.0
47.743417181 15.0
47.776839718 9.0
47.810262255 12.0
47.843684793 7.0
47.877107330 17.0
47.910529867 12.0
47.943952404 12.0
47.977374942 10.0
48.010797479 7.0
48.044220016 15.0
48.077642553 15.0
48.111065090 11.0
48.144487628 15.0
48.177910165 7.0
48.211332702 12.0
48.244755239 7.0
48.278177777 7.0
48.311600314 9.0
48.345022851 7.0
48.378445388 9.0
48.411867926 10.0
48.445290463 8.0
48.478713000 21.0
48.512135537 11.0
48.545558075 13.0
48.578980612 12.0
48.612403149 10.0
48.645825686 16.0
48.679248224 15.0
48.712670761 7.0
48.746093298 17.0
48.779515835 8.0
48.812938373 9.0
48.846360910 21.0
48.879783447 7.0
48.913205984 11.0
48.946628522 13.0
48.980051059 8.0
49.013473596 11.0
49.046896133 11.0
49.080318671 15.0
49.113741208 8.0
49.147163745 10.0
49.180586282 9.0
49.214008819 9.0
49.247431357 16.0
49.280853894 9.0
49.314276431 8.0
49.347698968 12.0
49.381121506 12.0
49.414544043 16.0
49.447966580 6.0
49.481389117 7.0
49.514811655 11.0
49.548234192 5.0
49.581656729 9.0
49.615079266 12.0
49.648501804 6.0
49.681924341 10.0
49.715346878 12.0
49.748769415 7.0
49.782191953 11.0
49.815614490 7.0
49.849037027 21.0
49.882459564 8.0
49.915882102 17.0
49.949304639 11.0
49.982727176 9.0
50.016149713 11.0
50.049572251 10.0
50.082994788 9.0
50.116417325 12.0
50.149839862 11.0
50.183262399 12.0
50.216684937 8.0
50.250107474 13.0
50.283530011 12.0
50.316952548 9.0
50.350375086 9.0
50.383797623 15.0
50.417220160 10.0
50.450642697 16.0
50.484065235 12.0
50.517487772 7.0
50.550910309 9.0
50.584332846 10.0
50.617755384 8.0
50.651177921 9.0
50.684600458 9.0
50.718022995 5.0
50.751445533 12.0
50.784868070 8.0
50.818290607 13.0
50.851713144 7.0
50.885135682 12.0
50.918558219 9.0
50.951980756 10.0
50.985403293 11.0
51.018825831 11.0
51.052248368 10.0
51.085670905 7.0
51.119093442 13.0
51.152515980 8.0
51.185938517 10.0
51.219361054 5.0
51.252783591 13.0
51.286206128 8.0
51.319628666 12.0
51.353051203 9.0
51.386473740 11.0
51.419896277 3.0
51.453318815 19.0
51.486741352 6.0
51.520163889 12.0
51.553586426 9.0
51.587008964 12.0
51.620431501 16.0
51.653854038 9.0
51.687276575 9.0
51.720699113 5.0
51.754121650 4.0
51.787544187 10.0
51.820966724 7.0
51.854389262 12.0
51.887811799 16.0
51.921234336 13.0
51.954656873 10.0
51.988079411 12.0
52.021501948 7.0
52.054924485 4.0
52.088347022 10.0
52.121769560 9.0
52.155192097 9.0
52.188614634 7.0
52.222037171 13.0
52.255459708 8.0
52.288882246 8.0
52.322304783 9.0
52.355727320 6.0
52.389149857 9.0
52.422572395 5.0
52.455994932 16.0
52.489417469 6.0
52.522840006 9.0
52.556262544 11.0
52.589685081 16.0
52.623107618 8.0
52.656530155 5.0
52.689952693 11.0
52.723375230 12.0
52.756797767 12.0
52.790220304 16.0
52.823642842 6.0
52.857065379 12.0
52.890487916 12.0
52.923910453 7.0
52.957332991 8.0
52.990755528 12.0
53.024178065 12.0
53.057600602 8.0
53.091023140 7.0
53.124445677 9.0
53.157868214 9.0
53.191290751 7.0
53.224713289 6.0
53.258135826 10.0
53.291558363 10.0
53.324980900 9.0
53.358403437 12.0
53.391825975 16.0
53.425248512 7.0
53.458671049 7.0
53.492093586 11.0
53.525516124 10.0
53.558938661 16.0
53.592361198 9.0
53.625783735 11.0
53.659206273 12.0
53.692628810 13.0
53.726051347 3.0
53.759473884 6.0
53.792896422 5.0
53.826318959 9.0
53.859741496 9.0
53.893164033 9.0
53.926586571 7.0
53.960009108 5.0
53.993431645 7.0
54.026854182 13.0
54.060276720 8.0
54.093699257 6.0
54.127121794 9.0
54.160544331 6.0
54.193966869 10.0
54.227389406 4.0
54.260811943 11.0
54.294234480 13.0
54.327657017 7.0
54.361079555 7.0
54.394502092 5.0
54.427924629 10.0
54.461347166 11.0
54.494769704 7.0
54.528192241 8.0
54.561614778 7.0
54.595037315 6.0
54.628459853 8.0
54.661882390 7.0
54.695304927 9.0
54.728727464 8.0
54.762150002 6.0
54.795572539 8.0
54.828995076 5.0
54.862417613 10.0
54.895840151 6.0
54.929262688 9.0
54.962685225 10.0
54.996107762 5.0
55.029530300 9.0
55.062952837 8.0
55.096375374 5.0
55.129797911 10.0
55.163220449 6.0
55.196642986 12.0
55.230065523 8.0
55.263488060 10.0
55.296910598 11.0
55.330333135 7.0
55.363755672 5.0
55.397178209 6.0
55.430600746 5.0
55.464023284 9.0
55.497445821 3.0
55.530868358 6.0
55.564290895 8.0
55.597713433 5.0
55.631135970 8.0
55.664558507 9.0
55.697981044 3.0
55.731403582 10.0
55.764826119 5.0
55.798248656 11.0
55.831671193 7.0
55.865093731 8.0
55.898516268 9.0
55.931938805 6.0
55.965361342 7.0
55.998783880 8.0
56.032206417 10.0
56.065628954 7.0
56.099051491 9.0
56.132474029 10.0
56.165896566 5.0
56.199319103 7.0
56.232741640 12.0
56.266164178 7.0
56.299586715 18.0
56.333009252 6.0
56.366431789 8.0
56.399854326 9.0
56.433276864 9.0
56.466699401 11.0
56.500121938 11.0
56.533544475 9.0
56.566967013 7.0
56.600389550 9.0
56.633812087 12.0
56.667234624 10.0
56.700657162 8.0
56.734079699 11.0
56.767502236 8.0
56.800924773 4.0
56.834347311 8.0
56.867769848 7.0
56.901192385 7.0
56.934614922 6.0
56.968037460 8.0
57.001459997 6.0
57.034882534 10.0
57.068305071 13.0
57.101727609 7.0
57.135150146 12.0
57.168572683 10.0
57.201995220 3.0
57.235417758 6.0
57.268840295 7.0
57.302262832 7.0
57.335685369 10.0
57.369107907 6.0
57.402530444 12.0
57.435952981 10.0
57.469375518 10.0
57.502798055 7.0
57.536220593 7.0
57.569643130 9.0
57.603065667 13.0
57.636488204 6.0
57.669910742 6.0
57.703333279 8.0
57.736755816 8.0
57.770178353 6.0
57.803600891 8.0
57.837023428 5.0
57.870445965 10.0
57.903868502 9.0
57.937291040 10.0
57.970713577 2.0
58.004136114 6.0
58.037558651 3.0
58.070981189 15.0
58.104403726 2.0
58.137826263 9.0
58.171248800 10.0
58.204671338 8.0
58.238093875 15.0
58.271516412 8.0
58.304938949 6.0
58.338361487 6.0
58.371784024 17.0
58.405206561 13.0
58.438629098 8.0
58.472051635 5.0
58.505474173 4.0
58.538896710 5.0
58.572319247 8.0
58.605741784 5.0
58.639164322 12.0
58.672586859 8.0
58.706009396 5.0
58.739431933 6.0
58.772854471 13.0
58.806277008 11.0
58.839699545 7.0
58.873122082 6.0
58.906544620 6.0
58.939967157 12.0
58.973389694 17.0
59.006812231 6.0
59.040234769 9.0
59.073657306 7.0
59.107079843 8.0
59.140502380 4.0
59.173924918 7.0
59.207347455 3.0
59.240769992 11.0
59.274192529 8.0
59.307615067 9.0
59.341037604 6.0
59.374460141 10.0
59.407882678 9.0
59.441305216 5.0
59.474727753 13.0
59.508150290 11.0
59.541572827 11.0
59.574995364 7.0
59.608417902 8.0
59.641840439 11.0
59.675262976 10.0
59.708685513 13.0
59.742108051 18.0
59.775530588 5.0
59.808953125 4.0
59.842375662 11.0
59.875798200 10.0
59.909220737 6.0
59.942643274 5.0
59.976065811 8.0
60.009488349 4.0
60.042910886 6.0
60.076333423 7.0
60.109755960 9.0
60.143178498 6.0
60.176601035 10.0
60.210023572 10.0
60.243446109 3.0
60.276868647 12.0
60.310291184 10.0
60.343713721 9.0
60.377136258 4.0
60.410558796 6.0
60.443981333 11.0
60.477403870 7.0
60.510826407 6.0
60.544248944 10.0
60.577671482 12.0
60.611094019 17.0
60.644516556 7.0
60.677939093 7.0
60.711361631 8.0
60.744784168 10.0
60.778206705 7.0
60.811629242 11.0
60.845051780 5.0
60.878474317 6.0
60.911896854 7.0
60.945319391 7.0
60.978741929 9.0
61.012164466 5.0
61.045587003 8.0
61.079009540 11.0
61.112432078 4.0
61.145854615 10.0
61.179277152 10.0
61.212699689 4.0
61.246122227 10.0
61.279544764 10.0
61.312967301 9.0
61.346389838 8.0
61.379812376 11.0
61.413234913 8.0
61.446657450 8.0
61.480079987 8.0
61.513502525 4.0
61.546925062 13.0
61.580347599 16.0
61.613770136 7.0
61.647192673 8.0
61.680615211 6.0
61.714037748 7.0
61.747460285 7.0
61.780882822 9.0
61.814305360 6.0
61.847727897 9.0
61.881150434 18.0
61.914572971 15.0
61.947995509 13.0
61.981418046 10.0
62.014840583 10.0
62.048263120 9.0
62.081685658 11.0
62.115108195 8.0
62.148530732 11.0
62.181953269 5.0
62.215375807 11.0
62.248798344 5.0
62.282220881 10.0
62.315643418 7.0
62.349065956 8.0
62.382488493 12.0
62.415911030 12.0
62.449333567 16.0
62.482756105 17.0
62.516178642 12.0
62.549601179 10.0
62.583023716 8.0
62.616446253 12.0
62.649868791 11.0
62.683291328 7.0
62.716713865 8.0
62.750136402 17.0
62.783558940 9.0
62.816981477 7.0
62.850404014 10.0
62.883826551 9.0
62.917249089 3.0
62.950671626 15.0
62.984094163 10.0
63.017516700 9.0
63.050939238 7.0
63.084361775 6.0
63.117784312 12.0
63.151206849 9.0
63.184629387 13.0
63.218051924 11.0
63.251474461 12.0
63.284896998 7.0
63.318319536 11.0
63.351742073 15.0
63.385164610 15.0
63.418587147 10.0
63.452009685 10.0
63.485432222 8.0
63.518854759 16.0
63.552277296 9.0
63.585699834 15.0
63.619122371 19.0
63.652544908 12.0
63.685967445 18.0
63.719389982 13.0
63.752812520 13.0
63.786235057 10.0
63.819657594 13.0
63.853080131 17.0
63.886502669 3.0
63.919925206 10.0
63.953347743 15.0
63.986770280 11.0
64.020192818 15.0
64.053615355 13.0
64.087037892 17.0
64.120460429 17.0
64.153882967 15.0
64.187305504 4.0
64.220728041 12.0
64.254150578 9.0
64.287573116 15.0
64.320995653 12.0
64.354418190 6.0
64.387840727 16.0
64.421263265 13.0
64.454685802 10.0
64.488108339 9.0
64.521530876 13.0
64.554953414 18.0
64.588375951 15.0
64.621798488 13.0
64.655221025 15.0
64.688643562 18.0
64.722066100 19.0
64.755488637 11.0
64.788911174 9.0
64.822333711 15.0
64.855756249 15.0
64.889178786 22.0
64.922601323 16.0
64.956023860 16.0
64.989446398 16.0
65.022868935 13.0
65.056291472 22.0
65.089714009 16.0
65.123136547 19.0
65.156559084 15.0
65.189981621 17.0
65.223404158 18.0
65.256826696 16.0
65.290249233 23.0
65.323671770 20.0
65.357094307 13.0
65.390516845 12.0
65.423939382 22.0
65.457361919 12.0
65.490784456 21.0
65.524206994 11.0
65.557629531 16.0
65.591052068 15.0
65.624474605 20.0
65.657897143 17.0
65.691319680 16.0
65.724742217 11.0
65.758164754 23.0
65.791587291 18.0
65.825009829 21.0
65.858432366 15.0
65.891854903 17.0
65.925277440 17.0
65.958699978 22.0
65.992122515 19.0
66.025545052 21.0
66.058967589 12.0
66.092390127 13.0
66.125812664 9.0
66.159235201 27.0
66.192657738 27.0
66.226080276 21.0
66.259502813 22.0
66.292925350 18.0
66.326347887 22.0
66.359770425 24.0
66.393192962 24.0
66.426615499 25.0
66.460038036 25.0
66.493460574 36.0
66.526883111 38.0
66.560305648 63.0
66.593728185 55.0
66.627150723 35.0
66.660573260 46.0
66.693995797 51.0
66.727418334 45.0
66.760840871 45.0
66.794263409 49.0
66.827685946 41.0
66.861108483 46.0
66.894531020 49.0
66.927953558 54.0
66.961376095 68.0
66.994798632 54.0
67.028221169 63.0
67.061643707 64.0
67.095066244 69.0
67.128488781 57.0
67.161911318 61.0
67.195333856 59.0
67.228756393 68.0
67.262178930 66.0
67.295601467 73.0
67.329024005 71.0
67.362446542 58.0
67.395869079 78.0
67.429291616 67.0
67.462714154 72.0
67.496136691 82.0
67.529559228 100.0
67.562981765 69.0
67.596404303 80.0
67.629826840 81.0
67.663249377 68.0
67.696671914 77.0
67.730094452 68.0
67.763516989 81.0
67.796939526 90.0
67.830362063 82.0
67.863784600 93.0
67.897207138 82.0
67.930629675 94.0
67.964052212 102.0
67.997474749 96.0
68.030897287 116.0
68.064319824 117.0
68.097742361 107.0
68.131164898 132.0
68.164587436 105.0
68.198009973 106.0
68.231432510 133.0
68.264855047 130.0
68.298277585 134.0
68.331700122 130.0
68.365122659 167.0
68.398545196 155.0
68.431967734 172.0
68.465390271 193.0
68.498812808 180.0
68.532235345 195.0
68.565657883 217.0
68.599080420 217.0
68.632502957 230.0
68.665925494 244.0
68.699348032 291.0
68.732770569 332.0
68.766193106 391.0
68.799615643 560.0
68.833038180 719.0
68.866460718 841.0
68.899883255 749.0
68.933305792 761.0
68.966728329 868.0
69.000150867 1045.0
69.033573404 1467.0
69.066995941 2462.0
69.100418478 4958.0
69.133841016 14328.0
69.167263553 67950.0
69.200686090 64591.0
69.234108627 14831.0
69.267531165 5421.0
69.300953702 4718.0
69.334376239 11014.0
69.367798776 38959.0
69.401221314 28953.0
69.434643851 7019.0
69.468066388 2564.0
69.501488925 1453.0
69.534911463 1078.0
69.568334000 816.0
69.601756537 631.0
69.635179074 569.0
69.668601612 443.0
69.702024149 414.0
69.735446686 372.0
69.768869223 364.0
69.802291761 288.0
69.835714298 276.0
69.869136835 245.0
69.902559372 237.0
69.935981909 219.0
69.969404447 240.0
70.002826984 227.0
70.036249521 220.0
70.069672058 195.0
70.103094596 184.0
70.136517133 184.0
70.169939670 177.0
70.203362207 167.0
70.236784745 158.0
70.270207282 153.0
70.303629819 143.0
70.337052356 134.0
70.370474894 143.0
70.403897431 128.0
70.437319968 134.0
70.470742505 127.0
70.504165043 123.0
70.537587580 124.0
70.571010117 121.0
70.604432654 96.0
70.637855192 121.0
70.671277729 104.0
70.704700266 107.0
70.738122803 116.0
70.771545341 87.0
70.804967878 101.0
70.838390415 77.0
70.871812952 89.0
70.905235489 88.0
70.938658027 93.0
70.972080564 79.0
71.005503101 65.0
71.038925638 78.0
71.072348176 86.0
71.105770713 74.0
71.139193250 96.0
71.172615787 65.0
71.206038325 80.0
71.239460862 80.0
71.272883399 80.0
71.306305936 61.0
71.339728474 55.0
71.373151011 58.0
71.406573548 65.0
71.439996085 63.0
71.473418623 60.0
71.506841160 55.0
71.540263697 54.0
71.573686234 59.0
71.607108772 49.0
71.640531309 45.0
71.673953846 52.0
71.707376383 45.0
71.740798921 44.0
71.774221458 39.0
71.807643995 49.0
71.841066532 34.0
71.874489070 48.0
71.907911607 35.0
71.941334144 34.0
71.974756681 39.0
72.008179218 38.0
72.041601756 45.0
72.075024293 35.0
72.108446830 44.0
72.141869367 51.0
72.175291905 37.0
72.208714442 26.0
72.242136979 39.0
72.275559516 26.0
72.308982054 37.0
72.342404591 29.0
72.375827128 34.0
72.409249665 26.0
72.442672203 31.0
72.476094740 35.0
72.509517277 34.0
72.542939814 29.0
72.576362352 20.0
72.609784889 29.0
72.643207426 35.0
72.676629963 39.0
72.710052501 30.0
72.743475038 25.0
72.776897575 29.0
72.810320112 26.0
72.843742650 32.0
72.877165187 27.0
72.910587724 17.0
72.944010261 24.0
72.977432798 16.0
73.010855336 25.0
73.044277873 22.0
73.077700410 26.0
73.111122947 26.0
73.144545485 18.0
73.177968022 24.0
73.211390559 21.0
73.244813096 23.0
73.278235634 15.0
73.311658171 24.0
73.345080708 20.0
73.378503245 20.0
73.411925783 15.0
73.445348320 20.0
73.478770857 22.0
73.512193394 16.0
73.545615932 18.0
73.579038469 18.0
73.612461006 17.0
73.645883543 16.0
73.679306081 17.0
73.712728618 24.0
73.746151155 10.0
73.779573692 15.0
73.812996230 18.0
73.846418767 20.0
73.879841304 18.0
73.913263841 21.0
73.946686379 13.0
73.980108916 12.0
74.013531453 13.0
74.046953990 18.0
74.080376527 22.0
74.113799065 25.0
74.147221602 17.0
74.180644139 19.0
74.214066676 12.0
74.247489214 13.0
74.280911751 15.0
74.314334288 13.0
74.347756825 20.0
74.381179363 18.0
74.414601900 12.0
74.448024437 17.0
74.481446974 10.0
74.514869512 20.0
74.548292049 16.0
74.581714586 18.0
74.615137123 10.0
74.648559661 18.0
74.681982198 22.0
74.715404735 22.0
74.748827272 12.0
74.782249810 21.0
74.815672347 13.0
74.849094884 15.0
74.882517421 21.0
74.915939959 18.0
74.949362496 17.0
74.982785033 18.0
75.016207570 18.0
75.049630108 17.0
75.083052645 11.0
75.116475182 8.0
75.149897719 8.0
75.183320256 8.0
75.216742794 7.0
75.250165331 11.0
75.283587868 15.0
75.317010405 15.0
75.350432943 23.0
75.383855480 7.0
75.417278017 12.0
75.450700554 15.0
75.484123092 12.0
75.517545629 18.0
75.550968166 11.0
75.584390703 15.0
75.617813241 8.0
75.651235778 16.0
75.684658315 8.0
75.718080852 15.0
75.751503390 8.0
75.784925927 8.0
75.818348464 15.0
75.851771001 11.0
75.885193539 8.0
75.918616076 9.0
75.952038613 7.0
75.985461150 16.0
76.018883688 11.0
76.052306225 11.0
76.085728762 12.0
76.119151299 12.0
76.152573836 11.0
76.185996374 12.0
76.219418911 12.0
76.252841448 13.0
76.286263985 6.0
76.319686523 12.0
76.353109060 10.0
76.386531597 12.0
76.419954134 19.0
76.453376672 20.0
76.486799209 19.0
76.520221746 6.0
76.553644283 18.0
76.587066821 9.0
76.620489358 18.0
76.653911895 9.0
76.687334432 12.0
76.720756970 9.0
76.754179507 12.0
76.787602044 13.0
76.821024581 8.0
76.854447119 7.0
76.887869656 9.0
76.921292193 5.0
76.954714730 10.0
76.988137268 8.0
77.021559805 13.0
77.054982342 11.0
77.088404879 7.0
77.121827417 6.0
77.155249954 13.0
77.188672491 10.0
77.222095028 7.0
77.255517565 9.0
77.288940103 11.0
77.322362640 10.0
77.355785177 13.0
77.389207714 11.0
77.422630252 9.0
77.456052789 13.0
77.489475326 11.0
77.522897863 7.0
77.556320401 16.0
77.589742938 11.0
77.623165475 5.0
77.656588012 15.0
77.690010550 7.0
77.723433087 10.0
77.756855624 11.0
77.790278161 6.0
77.823700699 7.0
77.857123236 13.0
77.890545773 7.0
77.923968310 3.0
77.957390848 3.0
77.990813385 10.0
78.024235922 11.0
78.057658459 12.0
78.091080997 13.0
78.124503534 12.0
78.157926071 8.0
78.191348608 8.0
78.224771145 9.0
78.258193683 15.0
78.291616220 7.0
78.325038757 8.0
78.358461294 5.0
78.391883832 18.0
78.425306369 8.0
78.458728906 8.0
78.492151443 10.0
78.525573981 7.0
78.558996518 13.0
78.592419055 9.0
78.625841592 7.0
78.659264130 13.0
78.692686667 9.0
78.726109204 13.0
78.759531741 11.0
78.792954279 10.0
78.826376816 7.0
78.859799353 10.0
78.893221890 5.0
78.926644428 8.0
78.960066965 16.0
78.993489502 8.0
79.026912039 8.0
79.060334577 9.0
79.093757114 10.0
79.127179651 7.0
79.160602188 17.0
79.194024726 5.0
79.227447263 16.0
79.260869800 6.0
79.294292337 13.0
79.327714874 10.0
79.361137412 10.0
79.394559949 7.0
79.427982486 16.0
79.461405023 4.0
79.494827561 11.0
79.528250098 7.0
79.561672635 13.0
79.595095172 9.0
79.628517710 11.0
79.661940247 13.0
79.695362784 7.0
79.728785321 9.0
79.762207859 12.0
79.795630396 8.0
79.829052933 7.0
79.862475470 8.0
79.895898008 11.0
79.929320545 16.0
79.962743082 6.0
79.996165619 4.0
80.029588157 8.0
80.063010694 7.0
80.096433231 13.0
80.129855768 11.0
80.163278306 7.0
80.196700843 6.0
80.230123380 6.0
80.263545917 13.0
80.296968454 5.0
80.330390992 11.0
80.363813529 11.0
80.397236066 13.0
80.430658603 4.0
80.464081141 13.0
80.497503678 18.0
80.530926215 10.0
80.564348752 13.0
80.597771290 6.0
80.631193827 12.0
80.664616364 9.0
80.698038901 19.0
80.731461439 8.0
80.764883976 11.0
80.798306513 12.0
80.831729050 7.0
80.865151588 12.0
80.898574125 9.0
80.931996662 13.0
80.965419199 10.0
80.998841737 5.0
81.032264274 15.0
81.065686811 9.0
81.099109348 10.0
81.132531886 12.0
81.165954423 6.0
81.199376960 13.0
81.232799497 12.0
81.266222035 15.0
81.299644572 7.0
81.333067109 9.0
81.366489646 10.0
81.399912183 7.0
81.433334721 9.0
81.466757258 11.0
81.500179795 11.0
81.533602332 13.0
81.567024870 10.0
81.600447407 10.0
81.633869944 13.0
81.667292481 8.0
81.700715019 21.0
81.734137556 15.0
81.767560093 9.0
81.800982630 17.0
81.834405168 15.0
81.867827705 11.0
81.901250242 17.0
81.934672779 21.0
81.968095317 23.0
82.001517854 16.0
82.034940391 15.0
82.068362928 9.0
82.101785466 20.0
82.135208003 11.0
82.168630540 9.0
82.202053077 11.0
82.235475615 19.0
82.268898152 17.0
82.302320689 6.0
82.335743226 18.0
82.369165763 23.0
82.402588301 7.0
82.436010838 4.0
82.469433375 13.0
82.502855912 18.0
82.536278450 18.0
82.569700987 18.0
82.603123524 17.0
82.636546061 13.0
82.669968599 18.0
82.703391136 18.0
82.736813673 25.0
82.770236210 12.0
82.803658748 18.0
82.837081285 12.0
82.870503822 23.0
82.903926359 12.0
82.937348897 8.0
82.970771434 13.0
83.004193971 17.0
83.037616508 18.0
83.071039046 13.0
83.104461583 15.0
83.137884120 15.0
83.171306657 19.0
83.204729195 22.0
83.238151732 11.0
83.271574269 19.0
83.304996806 18.0
83.338419344 17.0
83.371841881 16.0
83.405264418 17.0
83.438686955 21.0
83.472109492 17.0
83.505532030 23.0
83.538954567 21.0
83.572377104 21.0
83.605799641 17.0
83.639222179 22.0
83.672644716 24.0
83.706067253 21.0
83.739489790 21.0
83.772912328 25.0
83.806334865 17.0
83.839757402 32.0
83.873179939 27.0
83.906602477 13.0
83.940025014 22.0
83.973447551 19.0
84.006870088 16.0
84.040292626 17.0
84.073715163 13.0
84.107137700 25.0
84.140560237 24.0
84.173982775 22.0
84.207405312 22.0
84.240827849 22.0
84.274250386 27.0
84.307672924 20.0
84.341095461 23.0
84.374517998 21.0
84.407940535 25.0
84.441363072 20.0
84.474785610 26.0
84.508208147 31.0
84.541630684 35.0
84.575053221 12.0
84.608475759 29.0
84.641898296 31.0
84.675320833 24.0
84.708743370 29.0
84.742165908 26.0
84.775588445 20.0
84.809010982 18.0
84.842433519 20.0
84.875856057 33.0
84.909278594 22.0
84.942701131 22.0
84.976123668 31.0
85.009546206 23.0
85.042968743 23.0
85.076391280 16.0
85.109813817 24.0
85.143236355 23.0
85.176658892 23.0
85.210081429 21.0
85.243503966 23.0
85.276926504 27.0
85.310349041 22.0
85.343771578 25.0
85.377194115 23.0
85.410616653 10.0
85.444039190 30.0
85.477461727 22.0
85.510884264 21.0
85.544306801 18.0
85.577729339 21.0
85.611151876 24.0
85.644574413 26.0
85.677996950 20.0
85.711419488 20.0
85.744842025 26.0
85.778264562 19.0
85.811687099 25.0
85.845109637 24.0
85.878532174 26.0
85.911954711 23.0
85.945377248 30.0
85.978799786 20.0
86.012222323 23.0
86.045644860 25.0
86.079067397 17.0
86.112489935 17.0
86.145912472 15.0
86.179335009 20.0
86.212757546 21.0
86.246180084 11.0
86.279602621 19.0
86.313025158 15.0
86.346447695 24.0
86.379870233 17.0
86.413292770 15.0
86.446715307 22.0
86.480137844 22.0
86.513560381 18.0
86.546982919 18.0
86.580405456 15.0
86.613827993 18.0
86.647250530 21.0
86.680673068 17.0
86.714095605 24.0
86.747518142 9.0
86.780940679 11.0
86.814363217 22.0
86.847785754 18.0
86.881208291 16.0
86.914630828 12.0
86.948053366 13.0
86.981475903 18.0
87.014898440 11.0
87.048320977 13.0
87.081743515 21.0
87.115166052 23.0
87.148588589 11.0
87.182011126 15.0
87.215433664 16.0
87.248856201 15.0
87.282278738 19.0
87.315701275 12.0
87.349123813 18.0
87.382546350 12.0
87.415968887 8.0
87.449391424 19.0
87.482813962 18.0
87.516236499 10.0
87.549659036 11.0
87.583081573 13.0
87.616504110 17.0
87.649926648 18.0
87.683349185 15.0
87.716771722 19.0
87.750194259 16.0
87.783616797 7.0
87.817039334 11.0
87.850461871 15.0
87.883884408 15.0
87.917306946 9.0
87.950729483 10.0
87.984152020 10.0
88.017574557 6.0
88.050997095 11.0
88.084419632 10.0
88.117842169 13.0
88.151264706 15.0
88.184687244 11.0
88.218109781 13.0
88.251532318 18.0
88.284954855 12.0
88.318377393 16.0
88.351799930 10.0
88.385222467 13.0
88.418645004 9.0
88.452067542 12.0
88.485490079 16.0
88.518912616 13.0
88.552335153 16.0
88.585757690 12.0
88.619180228 11.0
88.652602765 11.0
88.686025302 9.0
88.719447839 15.0
88.752870377 13.0
88.786292914 15.0
88.819715451 12.0
88.853137988 6.0
88.886560526 13.0
88.919983063 6.0
88.953405600 11.0
88.986828137 17.0
89.020250675 7.0
89.053673212 10.0
89.087095749 13.0
89.120518286 11.0
89.153940824 12.0
89.187363361 11.0
89.220785898 17.0
89.254208435 8.0
89.287630973 11.0
89.321053510 12.0
89.354476047 13.0
89.387898584 16.0
89.421321122 7.0
89.454743659 12.0
89.488166196 6.0
89.521588733 15.0
89.555011271 11.0
89.588433808 17.0
89.621856345 12.0
89.655278882 15.0
89.688701419 9.0
89.722123957 11.0
89.755546494 16.0
89.788969031 12.0
89.822391568 10.0
89.855814106 9.0
89.889236643 13.0
89.922659180 17.0
89.956081717 11.0
89.989504255 20.0
90.022926792 12.0
90.056349329 15.0
90.089771866 17.0
90.123194404 18.0
90.156616941 12.0
90.190039478 10.0
90.223462015 11.0
90.256884553 15.0
90.290307090 8.0
90.323729627 18.0
90.357152164 10.0
90.390574702 13.0
90.423997239 8.0
90.457419776 11.0
90.490842313 10.0
90.524264851 11.0
90.557687388 15.0
90.591109925 17.0
90.624532462 6.0
90.657954999 9.0
90.691377537 10.0
90.724800074 11.0
90.758222611 20.0
90.791645148 12.0
90.825067686 10.0
90.858490223 10.0
90.891912760 12.0
90.925335297 15.0
90.958757835 12.0
90.992180372 21.0
91.025602909 18.0
91.059025446 13.0
91.092447984 19.0
91.125870521 18.0
91.159293058 8.0
91.192715595 11.0
91.226138133 15.0
91.259560670 19.0
91.292983207 12.0
91.326405744 16.0
91.359828282 13.0
91.393250819 19.0
91.426673356 19.0
91.460095893 21.0
91.493518431 15.0
91.526940968 23.0
91.560363505 18.0
91.593786042 12.0
91.627208580 26.0
91.660631117 20.0
91.694053654 20.0
91.727476191 20.0
91.760898728 23.0
91.794321266 24.0
91.827743803 29.0
91.861166340 22.0
91.894588877 21.0
91.928011415 18.0
91.961433952 22.0
91.994856489 35.0
92.028279026 31.0
92.061701564 32.0
92.095124101 25.0
92.128546638 37.0
92.161969175 37.0
92.195391713 30.0
92.228814250 41.0
92.262236787 49.0
92.295659324 39.0
92.329081862 51.0
92.362504399 55.0
92.395926936 78.0
92.429349473 48.0
92.462772011 59.0
92.496194548 77.0
92.529617085 73.0
92.563039622 87.0
92.596462160 80.0
92.629884697 93.0
92.663307234 100.0
92.696729771 80.0
92.730152308 96.0
92.763574846 116.0
92.796997383 110.0
92.830419920 107.0
92.863842457 121.0
92.897264995 108.0
92.930687532 106.0
92.964110069 124.0
92.997532606 118.0
93.030955144 129.0
93.064377681 121.0
93.097800218 114.0
93.131222755 116.0
93.164645293 119.0
93.198067830 122.0
93.231490367 118.0
93.264912904 122.0
93.298335442 133.0
93.331757979 118.0
93.365180516 131.0
93.398603053 102.0
93.432025591 107.0
93.465448128 128.0
93.498870665 111.0
93.532293202 130.0
93.565715740 91.0
93.599138277 99.0
93.632560814 114.0
93.665983351 103.0
93.699405889 85.0
93.732828426 99.0
93.766250963 79.0
93.799673500 74.0
93.833096037 81.0
93.866518575 100.0
93.899941112 65.0
93.933363649 73.0
93.966786186 52.0
94.000208724 52.0
94.033631261 59.0
94.067053798 52.0
94.100476335 55.0
94.133898873 62.0
94.167321410 39.0
94.200743947 35.0
94.234166484 25.0
94.267589022 30.0
94.301011559 22.0
94.334434096 27.0
94.367856633 32.0
94.401279171 35.0
94.434701708 27.0
94.468124245 21.0
94.501546782 26.0
94.534969320 22.0
94.568391857 21.0
94.601814394 17.0
94.635236931 19.0
94.668659469 21.0
94.702082006 19.0
94.735504543 21.0
94.768927080 18.0
94.802349617 23.0
94.835772155 17.0
94.869194692 17.0
94.902617229 11.0
94.936039766 17.0
94.969462304 16.0
95.002884841 18.0
95.036307378 18.0
95.069729915 18.0
95.103152453 12.0
95.136574990 18.0
95.169997527 17.0
95.203420064 11.0
95.236842602 10.0
95.270265139 15.0
95.303687676 13.0
95.337110213 9.0
95.370532751 8.0
95.403955288 7.0
95.437377825 8.0
95.470800362 10.0
95.504222900 6.0
95.537645437 4.0
95.571067974 12.0
95.604490511 8.0
95.637913049 15.0
95.671335586 7.0
95.704758123 17.0
95.738180660 15.0
95.771603198 9.0
95.805025735 11.0
95.838448272 7.0
95.871870809 8.0
95.905293346 4.0
95.938715884 9.0
95.972138421 4.0
96.005560958 5.0
96.038983495 6.0
96.072406033 9.0
96.105828570 8.0
96.139251107 11.0
96.172673644 11.0
96.206096182 16.0
96.239518719 8.0
96.272941256 11.0
96.306363793 8.0
96.339786331 4.0
96.373208868 7.0
96.406631405 10.0
96.440053942 4.0
96.473476480 5.0
96.506899017 4.0
96.540321554 7.0
96.573744091 6.0
96.607166629 12.0
96.640589166 7.0
96.674011703 3.0
96.707434240 4.0
96.740856778 4.0
96.774279315 10.0
96.807701852 6.0
96.841124389 7.0
96.874546926 10.0
96.907969464 3.0
96.941392001 5.0
96.974814538 6.0
97.008237075 7.0
97.041659613 7.0
97.075082150 5.0
97.108504687 5.0
97.141927224 2.0
97.175349762 9.0
97.208772299 3.0
97.242194836 8.0
97.275617373 6.0
97.309039911 7.0
97.342462448 5.0
97.375884985 6.0
97.409307522 6.0
97.442730060 6.0
97.476152597 5.0
97.509575134 5.0
97.542997671 10.0
97.576420209 11.0
97.609842746 6.0
97.643265283 7.0
97.676687820 10.0
97.710110358 6.0
97.743532895 9.0
97.776955432 6.0
97.810377969 3.0
97.843800507 8.0
97.877223044 5.0
97.910645581 3.0
97.944068118 3.0
97.977490655 9.0
98.010913193 9.0
98.044335730 9.0
98.077758267 3.0
98.111180804 1.0
98.144603342 7.0
98.178025879 1.0
98.211448416 3.0
98.244870953 5.0
98.278293491 3.0
98.311716028 6.0
98.345138565 6.0
98.378561102 9.0
98.411983640 6.0
98.445406177 10.0
98.478828714 3.0
98.512251251 7.0
98.545673789 8.0
98.579096326 6.0
98.612518863 5.0
98.645941400 5.0
98.679363938 7.0
98.712786475 5.0
98.746209012 4.0
98.779631549 5.0
98.813054087 4.0
98.846476624 4.0
98.879899161 3.0
98.913321698 5.0
98.946744235 4.0
98.980166773 5.0
99.013589310 10.0
99.047011847 8.0
99.080434384 5.0
99.113856922 5.0
99.147279459 7.0
99.180701996 5.0
99.214124533 4.0
99.247547071 3.0
99.280969608 4.0
99.314392145 10.0
99.347814682 7.0
99.381237220 7.0
99.414659757 4.0
99.448082294 5.0
99.481504831 7.0
99.514927369 8.0
99.548349906 4.0
99.581772443 8.0
99.615194980 5.0
99.648617518 7.0
99.682040055 6.0
99.715462592 4.0
99.748885129 5.0
99.782307667 4.0
99.815730204 5.0
99.849152741 4.0
99.882575278 7.0
99.915997816 2.0
99.949420353 8.0
99.982842890 2.0
