20.002711270 96.0
20.036133807 82.0
20.069556344 81.0
20.102978882 95.0
20.136401419 85.0
20.169823956 54.0
20.203246493 78.0
20.236669031 81.0
20.270091568 86.0
20.303514105 78.0
20.336936642 82.0
20.370359180 88.0
20.403781717 83.0
20.437204254 72.0
20.470626791 71.0
20.504049329 90.0
20.537471866 71.0
20.570894403 66.0
20.604316940 81.0
20.637739478 74.0
20.671162015 86.0
20.704584552 54.0
20.738007089 63.0
20.771429627 82.0
20.804852164 76.0
20.838274701 68.0
20.871697238 65.0
20.905119776 72.0
20.938542313 86.0
20.971964850 67.0
21.005387387 78.0
21.038809925 88.0
21.072232462 79.0
21.105654999 78.0
21.139077536 67.0
21.172500073 59.0
21.205922611 93.0
21.239345148 89.0
21.272767685 76.0
21.306190222 69.0
21.339612760 76.0
21.373035297 73.0
21.406457834 74.0
21.439880371 63.0
21.473302909 75.0
21.506725446 74.0
21.540147983 75.0
21.573570520 71.0
21.606993058 74.0
21.640415595 66.0
21.673838132 66.0
21.707260669 59.0
21.740683207 60.0
21.774105744 47.0
21.807528281 64.0
21.840950818 66.0
21.874373356 72.0
21.907795893 71.0
21.941218430 73.0
21.974640967 58.0
22.008063505 49.0
22.041486042 64.0
22.074908579 64.0
22.108331116 53.0
22.141753653 69.0
22.175176191 69.0
22.208598728 55.0
22.242021265 50.0
22.275443802 60.0
22.308866340 72.0
22.342288877 58.0
22.375711414 75.0
22.409133951 67.0
22.442556489 74.0
22.475979026 69.0
22.509401563 60.0
22.542824100 61.0
22.576246638 60.0
22.609669175 66.0
22.643091712 65.0
22.676514249 73.0
22.709936787 61.0
22.743359324 74.0
22.776781861 80.0
22.810204398 64.0
22.843626936 69.0
22.877049473 81.0
22.910472010 51.0
22.943894547 68.0
22.977317085 50.0
23.010739622 57.0
23.044162159 58.0
23.077584696 55.0
23.111007234 71.0
23.144429771 50.0
23.177852308 53.0
23.211274845 61.0
23.244697382 61.0
23.278119920 59.0
23.311542457 69.0
23.344964994 60.0
23.378387531 57.0
23.411810069 65.0
23.445232606 58.0
23.478655143 60.0
23.512077680 67.0
23.545500218 64.0
23.578922755 71.0
23.612345292 49.0
23.645767829 48.0
23.679190367 65.0
23.712612904 51.0
23.746035441 59.0
23.779457978 62.0
23.812880516 54.0
23.846303053 49.0
23.879725590 65.0
23.913148127 59.0
23.946570665 50.0
23.979993202 63.0
24.013415739 61.0
24.046838276 59.0
24.080260814 61.0
24.113683351 57.0
24.147105888 61.0
24.180528425 50.0
24.213950962 54.0
24.247373500 37.0
24.280796037 47.0
24.314218574 45.0
24.347641111 57.0
24.381063649 55.0
24.414486186 58.0
24.447908723 54.0
24.481331260 51.0
24.514753798 54.0
24.548176335 61.0
24.581598872 54.0
24.615021409 48.0
24.648443947 59.0
24.681866484 55.0
24.715289021 63.0
24.748711558 48.0
24.782134096 49.0
24.815556633 53.0
24.848979170 60.0
24.882401707 63.0
24.915824245 51.0
24.949246782 72.0
24.982669319 53.0
25.016091856 52.0
25.049514394 41.0
25.082936931 58.0
25.116359468 43.0
25.149782005 47.0
25.183204543 47.0
25.216627080 55.0
25.250049617 44.0
25.283472154 74.0
25.316894691 48.0
25.350317229 59.0
25.383739766 48.0
25.417162303 47.0
25.450584840 36.0
25.484007378 52.0
25.517429915 53.0
25.550852452 53.0
25.584274989 48.0
25.617697527 54.0
25.651120064 41.0
25.684542601 45.0
25.717965138 54.0
25.751387676 60.0
25.784810213 35.0
25.818232750 59.0
25.851655287 53.0
25.885077825 52.0
25.918500362 52.0
25.951922899 48.0
25.985345436 45.0
26.018767974 47.0
26.052190511 51.0
26.085613048 48.0
26.119035585 52.0
26.152458123 51.0
26.185880660 44.0
26.219303197 39.0
26.252725734 54.0
26.286148271 51.0
26.319570809 44.0
26.352993346 46.0
26.386415883 52.0
26.419838420 39.0
26.453260958 47.0
26.486683495 45.0
26.520106032 34.0
26.553528569 52.0
26.586951107 51.0
26.620373644 46.0
26.653796181 40.0
26.687218718 54.0
26.720641256 43.0
26.754063793 40.0
26.787486330 54.0
26.820908867 52.0
26.854331405 49.0
26.887753942 46.0
26.921176479 48.0
26.954599016 46.0
26.988021554 37.0
27.021444091 37.0
27.054866628 39.0
27.088289165 34.0
27.121711703 50.0
27.155134240 44.0
27.188556777 41.0
27.221979314 43.0
27.255401852 40.0
27.288824389 45.0
27.322246926 46.0
27.355669463 35.0
27.389092000 52.0
27.422514538 49.0
27.455937075 50.0
27.489359612 41.0
27.522782149 45.0
27.556204687 59.0
27.589627224 60.0
27.623049761 44.0
27.656472298 43.0
27.689894836 45.0
27.723317373 41.0
27.756739910 51.0
27.790162447 39.0
27.823584985 40.0
27.857007522 44.0
27.890430059 34.0
27.923852596 51.0
27.957275134 43.0
27.990697671 52.0
28.024120208 45.0
28.057542745 44.0
28.090965283 49.0
28.124387820 41.0
28.157810357 45.0
28.191232894 36.0
28.224655432 39.0
28.258077969 35.0
28.291500506 40.0
28.324923043 50.0
28.358345580 35.0
28.391768118 51.0
28.425190655 38.0
28.458613192 31.0
28.492035729 48.0
28.525458267 52.0
28.558880804 41.0
28.592303341 37.0
28.625725878 39.0
28.659148416 44.0
28.692570953 40.0
28.725993490 44.0
28.759416027 43.0
28.792838565 39.0
28.826261102 47.0
28.859683639 40.0
28.893106176 38.0
28.926528714 39.0
28.959951251 33.0
28.993373788 46.0
29.026796325 40.0
29.060218863 49.0
29.093641400 45.0
29.127063937 40.0
29.160486474 57.0
29.193909012 32.0
29.227331549 43.0
29.260754086 39.0
29.294176623 27.0
29.327599161 35.0
29.361021698 55.0
29.394444235 40.0
29.427866772 45.0
29.461289309 44.0
29.494711847 52.0
29.528134384 39.0
29.561556921 50.0
29.594979458 35.0
29.628401996 46.0
29.661824533 35.0
29.695247070 40.0
29.728669607 44.0
29.762092145 50.0
29.795514682 45.0
29.828937219 32.0
29.862359756 38.0
29.895782294 32.0
29.929204831 39.0
29.962627368 39.0
29.996049905 40.0
30.029472443 26.0
30.062894980 49.0
30.096317517 46.0
30.129740054 46.0
30.163162592 51.0
30.196585129 40.0
30.230007666 29.0
30.263430203 49.0
30.296852741 33.0
30.330275278 36.0
30.363697815 52.0
30.397120352 29.0
30.430542889 46.0
30.463965427 49.0
30.497387964 45.0
30.530810501 44.0
30.564233038 47.0
30.597655576 47.0
30.631078113 39.0
30.664500650 43.0
30.697923187 45.0
30.731345725 46.0
30.764768262 44.0
30.798190799 35.0
30.831613336 36.0
30.865035874 54.0
30.898458411 48.0
30.931880948 44.0
30.965303485 38.0
30.998726023 40.0
31.032148560 41.0
31.065571097 44.0
31.098993634 43.0
31.132416172 39.0
31.165838709 36.0
31.199261246 41.0
31.232683783 45.0
31.266106321 52.0
31.299528858 53.0
31.332951395 46.0
31.366373932 48.0
31.399796470 51.0
31.433219007 49.0
31.466641544 41.0
31.500064081 46.0
31.533486618 43.0
31.566909156 38.0
31.600331693 47.0
31.633754230 47.0
31.667176767 39.0
31.700599305 46.0
31.734021842 41.0
31.767444379 46.0
31.800866916 51.0
31.834289454 48.0
31.867711991 55.0
31.901134528 37.0
31.934557065 38.0
31.967979603 49.0
32.001402140 52.0
32.034824677 60.0
32.068247214 52.0
32.101669752 45.0
32.135092289 53.0
32.168514826 50.0
32.201937363 48.0
32.235359901 49.0
32.268782438 41.0
32.302204975 54.0
32.335627512 54.0
32.369050050 34.0
32.402472587 49.0
32.435895124 76.0
32.469317661 53.0
32.502740198 67.0
32.536162736 58.0
32.569585273 36.0
32.603007810 43.0
32.636430347 47.0
32.669852885 71.0
32.703275422 43.0
32.736697959 47.0
32.770120496 54.0
32.803543034 60.0
32.836965571 55.0
32.870388108 50.0
32.903810645 62.0
32.937233183 57.0
32.970655720 77.0
33.004078257 57.0
33.037500794 274.0
33.070923332 153.0
33.104345869 86.0
33.137768406 199.0
33.171190943 77.0
33.204613481 54.0
33.238036018 73.0
33.271458555 57.0
33.304881092 57.0
33.338303630 69.0
33.371726167 55.0
33.405148704 60.0
33.438571241 52.0
33.471993779 64.0
33.505416316 49.0
33.538838853 66.0
33.572261390 57.0
33.605683927 65.0
33.639106465 51.0
33.672529002 59.0
33.705951539 37.0
33.739374076 54.0
33.772796614 50.0
33.806219151 67.0
33.839641688 60.0
33.873064225 51.0
33.906486763 51.0
33.939909300 58.0
33.973331837 58.0
34.006754374 64.0
34.040176912 59.0
34.073599449 53.0
34.107021986 64.0
34.140444523 59.0
34.173867061 65.0
34.207289598 64.0
34.240712135 64.0
34.274134672 62.0
34.307557210 44.0
34.340979747 58.0
34.374402284 69.0
34.407824821 49.0
34.441247359 45.0
34.474669896 52.0
34.508092433 53.0
34.541514970 49.0
34.574937507 59.0
34.608360045 57.0
34.641782582 48.0
34.675205119 57.0
34.708627656 47.0
34.742050194 63.0
34.775472731 57.0
34.808895268 47.0
34.842317805 47.0
34.875740343 43.0
34.909162880 61.0
34.942585417 47.0
34.976007954 45.0
35.009430492 50.0
35.042853029 60.0
35.076275566 54.0
35.109698103 52.0
35.143120641 46.0
35.176543178 61.0
35.209965715 50.0
35.243388252 44.0
35.276810790 55.0
35.310233327 50.0
35.343655864 50.0
35.377078401 59.0
35.410500939 37.0
35.443923476 44.0
35.477346013 43.0
35.510768550 60.0
35.544191088 58.0
35.577613625 48.0
35.611036162 49.0
35.644458699 43.0
35.677881236 52.0
35.711303774 48.0
35.744726311 71.0
35.778148848 68.0
35.811571385 46.0
35.844993923 66.0
35.878416460 55.0
35.911838997 65.0
35.945261534 58.0
35.978684072 67.0
36.012106609 57.0
36.045529146 60.0
36.078951683 65.0
36.112374221 49.0
36.145796758 71.0
36.179219295 52.0
36.212641832 59.0
36.246064370 66.0
36.279486907 58.0
36.312909444 45.0
36.346331981 65.0
36.379754519 67.0
36.413177056 50.0
36.446599593 61.0
36.480022130 60.0
36.513444668 58.0
36.546867205 61.0
36.580289742 57.0
36.613712279 47.0
36.647134816 57.0
36.680557354 64.0
36.713979891 57.0
36.747402428 54.0
36.780824965 51.0
36.814247503 47.0
36.847670040 47.0
36.881092577 53.0
36.914515114 73.0
36.947937652 55.0
36.981360189 44.0
37.014782726 50.0
37.048205263 54.0
37.081627801 66.0
37.115050338 58.0
37.148472875 39.0
37.181895412 58.0
37.215317950 45.0
37.248740487 33.0
37.282163024 51.0
37.315585561 37.0
37.349008099 47.0
37.382430636 44.0
37.415853173 43.0
37.449275710 50.0
37.482698248 43.0
37.516120785 50.0
37.549543322 31.0
37.582965859 44.0
37.616388397 43.0
37.649810934 39.0
37.683233471 35.0
37.716656008 38.0
37.750078545 35.0
37.783501083 39.0
37.816923620 36.0
37.850346157 37.0
37.883768694 41.0
37.917191232 53.0
37.950613769 43.0
37.984036306 35.0
38.017458843 38.0
38.050881381 43.0
38.084303918 34.0
38.117726455 34.0
38.151148992 44.0
38.184571530 47.0
38.217994067 29.0
38.251416604 31.0
38.284839141 43.0
38.318261679 48.0
38.351684216 46.0
38.385106753 38.0
38.418529290 43.0
38.451951828 34.0
38.485374365 32.0
38.518796902 36.0
38.552219439 37.0
38.585641977 46.0
38.619064514 32.0
38.652487051 34.0
38.685909588 41.0
38.719332125 54.0
38.752754663 30.0
38.786177200 24.0
38.819599737 37.0
38.853022274 34.0
38.886444812 49.0
38.919867349 50.0
38.953289886 36.0
38.986712423 47.0
39.020134961 41.0
39.053557498 48.0
39.086980035 46.0
39.120402572 54.0
39.153825110 58.0
39.187247647 44.0
39.220670184 37.0
39.254092721 58.0
39.287515259 40.0
39.320937796 58.0
39.354360333 63.0
39.387782870 49.0
39.421205408 43.0
39.454627945 44.0
39.488050482 52.0
39.521473019 45.0
39.554895557 50.0
39.588318094 47.0
39.621740631 44.0
39.655163168 43.0
39.688585706 48.0
39.722008243 38.0
39.755430780 37.0
39.788853317 32.0
39.822275854 39.0
39.855698392 39.0
39.889120929 46.0
39.922543466 59.0
39.955966003 45.0
39.989388541 60.0
40.022811078 33.0
40.056233615 51.0
40.089656152 60.0
40.123078690 59.0
40.156501227 73.0
40.189923764 64.0
40.223346301 73.0
40.256768839 73.0
40.290191376 89.0
40.323613913 93.0
40.357036450 94.0
40.390458988 85.0
40.423881525 95.0
40.457304062 77.0
40.490726599 83.0
40.524149137 107.0
40.557571674 89.0
40.590994211 85.0
40.624416748 77.0
40.657839286 109.0
40.691261823 94.0
40.724684360 88.0
40.758106897 87.0
40.791529434 91.0
40.824951972 89.0
40.858374509 85.0
40.891797046 64.0
40.925219583 72.0
40.958642121 80.0
40.992064658 80.0
41.025487195 91.0
41.058909732 77.0
41.092332270 79.0
41.125754807 69.0
41.159177344 91.0
41.192599881 83.0
41.226022419 89.0
41.259444956 91.0
41.292867493 103.0
41.326290030 123.0
41.359712568 114.0
41.393135105 149.0
41.426557642 123.0
41.459980179 160.0
41.493402717 189.0
41.526825254 177.0
41.560247791 222.0
41.593670328 214.0
41.627092866 259.0
41.660515403 261.0
41.693937940 264.0
41.727360477 305.0
41.760783015 338.0
41.794205552 312.0
41.827628089 371.0
41.861050626 398.0
41.894473163 448.0
41.927895701 480.0
41.961318238 420.0
41.994740775 498.0
42.028163312 510.0
42.061585850 538.0
42.095008387 533.0
42.128430924 541.0
42.161853461 559.0
42.195275999 535.0
42.228698536 606.0
42.262121073 615.0
42.295543610 603.0
42.328966148 611.0
42.362388685 691.0
42.395811222 655.0
42.429233759 662.0
42.462656297 664.0
42.496078834 645.0
42.529501371 661.0
42.562923908 616.0
42.596346446 653.0
42.629768983 630.0
42.663191520 601.0
42.696614057 572.0
42.730036595 575.0
42.763459132 578.0
42.796881669 588.0
42.830304206 528.0
42.863726743 549.0
42.897149281 540.0
42.930571818 470.0
42.963994355 496.0
42.997416892 441.0
43.030839430 414.0
43.064261967 438.0
43.097684504 366.0
43.131107041 384.0
43.164529579 358.0
43.197952116 328.0
43.231374653 311.0
43.264797190 288.0
43.298219728 263.0
43.331642265 236.0
43.365064802 233.0
43.398487339 205.0
43.431909877 185.0
43.465332414 180.0
43.498754951 160.0
43.532177488 144.0
43.565600026 149.0
43.599022563 146.0
43.632445100 116.0
43.665867637 127.0
43.699290175 102.0
43.732712712 89.0
43.766135249 78.0
43.799557786 75.0
43.832980324 76.0
43.866402861 64.0
43.899825398 73.0
43.933247935 59.0
43.966670472 46.0
44.000093010 50.0
44.033515547 45.0
44.066938084 53.0
44.100360621 46.0
44.133783159 38.0
44.167205696 41.0
44.200628233 44.0
44.234050770 44.0
44.267473308 48.0
44.300895845 43.0
44.334318382 26.0
44.367740919 41.0
44.401163457 35.0
44.434585994 26.0
44.468008531 27.0
44.501431068 38.0
44.534853606 36.0
44.568276143 35.0
44.601698680 36.0
44.635121217 31.0
44.668543755 23.0
44.701966292 24.0
44.735388829 24.0
44.768811366 25.0
44.802233904 20.0
44.835656441 32.0
44.869078978 24.0
44.902501515 22.0
44.935924052 18.0
44.969346590 24.0
45.002769127 22.0
45.036191664 21.0
45.069614201 22.0
45.103036739 24.0
45.136459276 25.0
45.169881813 22.0
45.203304350 23.0
45.236726888 24.0
45.270149425 17.0
45.303571962 16.0
45.336994499 24.0
45.370417037 17.0
45.403839574 17.0
45.437262111 22.0
45.470684648 13.0
45.504107186 12.0
45.537529723 18.0
45.570952260 16.0
45.604374797 15.0
45.637797335 18.0
45.671219872 19.0
45.704642409 18.0
45.738064946 13.0
45.771487484 11.0
45.804910021 23.0
45.838332558 10.0
45.871755095 15.0
45.905177633 20.0
45.938600170 17.0
45.972022707 25.0
46.005445244 12.0
46.038867781 20.0
46.072290319 16.0
46.105712856 16.0
46.139135393 9.0
46.172557930 13.0
46.205980468 15.0
46.239403005 16.0
46.272825542 21.0
46.306248079 12.0
46.339670617 9.0
46.373093154 10.0
46.406515691 20.0
46.439938228 13.0
46.473360766 23.0
46.506783303 13.0
46.540205840 7.0
46.573628377 15.0
46.607050915 4.0
46.640473452 12.0
46.673895989 17.0
46.707318526 9.0
46.740741064 15.0
46.774163601 12.0
46.807586138 9.0
46.841008675 23.0
46.874431213 17.0
46.907853750 13.0
46.941276287 12.0
46.974698824 12.0
47.008121362 15.0
47.041543899 16.0
47.074966436 24.0
47.108388973 11.0
47.141811510 11.0
47.175234048 6.0
47.208656585 12.0
47.242079122 5.0
47.275501659 10.0
47.308924197 15.0
47.342346734 11.0
47.375769271 9.0
47.409191808 13.0
47.442614346 12.0
47.476036883 12.0
47.509459420 16.0
47.542881957 16.0
47.576304495 13.0
47.609727032 10.0
47.643149569 17.0
47.676572106 9.0
47.709994644 15.0
47.743417181 15.0
47.776839718 15.0
47.810262255 16.0
47.843684793 4.0
47.877107330 11.0
47.910529867 15.0
47.943952404 6.0
47.977374942 9.0
48.010797479 6.0
48.044220016 13.0
48.077642553 9.0
48.111065090 13.0
48.144487628 8.0
48.177910165 16.0
48.211332702 11.0
48.244755239 15.0
48.278177777 7.0
48.311600314 6.0
48.345022851 9.0
48.378445388 11.0
48.411867926 9.0
48.445290463 17.0
48.478713000 6.0
48.512135537 10.0
48.545558075 11.0
48.578980612 8.0
48.612403149 4.0
48.645825686 15.0
48.679248224 7.0
48.712670761 8.0
48.746093298 16.0
48.779515835 8.0
48.812938373 9.0
48.846360910 11.0
48.879783447 13.0
48.913205984 15.0
48.946628522 10.0
48.980051059 7.0
49.013473596 10.0
49.046896133 9.0
49.080318671 12.0
49.113741208 9.0
49.147163745 15.0
49.180586282 11.0
49.214008819 12.0
49.247431357 8.0
49.280853894 11.0
49.314276431 16.0
49.347698968 6.0
49.381121506 10.0
49.414544043 8.0
49.447966580 8.0
49.481389117 9.0
49.514811655 4.0
49.548234192 12.0
49.581656729 11.0
49.615079266 12.0
49.648501804 10.0
49.681924341 6.0
49.715346878 9.0
49.748769415 11.0
49.782191953 10.0
49.815614490 13.0
49.849037027 8.0
49.882459564 10.0
49.915882102 9.0
49.949304639 12.0
49.982727176 9.0
50.016149713 8.0
50.049572251 15.0
50.082994788 8.0
50.116417325 6.0
50.149839862 8.0
50.183262399 6.0
50.216684937 9.0
50.250107474 8.0
50.283530011 15.0
50.316952548 10.0
50.350375086 9.0
50.383797623 12.0
50.417220160 6.0
50.450642697 19.0
50.484065235 9.0
50.517487772 13.0
50.550910309 10.0
50.584332846 7.0
50.617755384 9.0
50.651177921 21.0
50.684600458 16.0
50.718022995 9.0
50.751445533 16.0
50.784868070 10.0
50.818290607 5.0
50.851713144 11.0
50.885135682 9.0
50.918558219 8.0
50.951980756 6.0
50.985403293 8.0
51.018825831 7.0
51.052248368 13.0
51.085670905 7.0
51.119093442 9.0
51.152515980 4.0
51.185938517 4.0
51.219361054 12.0
51.252783591 10.0
51.286206128 8.0
51.319628666 10.0
51.353051203 9.0
51.386473740 8.0
51.419896277 5.0
51.453318815 11.0
51.486741352 10.0
51.520163889 4.0
51.553586426 8.0
51.587008964 17.0
51.620431501 7.0
51.653854038 13.0
51.687276575 8.0
51.720699113 5.0
51.754121650 16.0
51.787544187 13.0
51.820966724 8.0
51.854389262 13.0
51.887811799 9.0
51.921234336 12.0
51.954656873 12.0
51.988079411 10.0
52.021501948 12.0
52.054924485 3.0
52.088347022 3.0
52.121769560 10.0
52.155192097 9.0
52.188614634 10.0
52.222037171 8.0
52.255459708 8.0
52.288882246 13.0
52.322304783 11.0
52.355727320 10.0
52.389149857 6.0
52.422572395 9.0
52.455994932 17.0
52.489417469 11.0
52.522840006 7.0
52.556262544 8.0
52.589685081 6.0
52.623107618 8.0
52.656530155 12.0
52.689952693 4.0
52.723375230 11.0
52.756797767 4.0
52.790220304 12.0
52.823642842 7.0
52.857065379 9.0
52.890487916 8.0
52.923910453 11.0
52.957332991 8.0
52.990755528 6.0
53.024178065 8.0
53.057600602 11.0
53.091023140 8.0
53.124445677 8.0
53.157868214 10.0
53.191290751 11.0
53.224713289 19.0
53.258135826 13.0
53.291558363 9.0
53.324980900 4.0
53.358403437 8.0
53.391825975 6.0
53.425248512 5.0
53.458671049 6.0
53.492093586 10.0
53.525516124 9.0
53.558938661 5.0
53.592361198 6.0
53.625783735 12.0
53.659206273 11.0
53.692628810 9.0
53.726051347 11.0
53.759473884 9.0
53.792896422 9.0
53.826318959 12.0
53.859741496 5.0
53.893164033 6.0
53.926586571 10.0
53.960009108 4.0
53.993431645 5.0
54.026854182 8.0
54.060276720 8.0
54.093699257 9.0
54.127121794 11.0
54.160544331 10.0
54.193966869 7.0
54.227389406 8.0
54.260811943 8.0
54.294234480 10.0
54.327657017 10.0
54.361079555 8.0
54.394502092 7.0
54.427924629 7.0
54.461347166 5.0
54.494769704 6.0
54.528192241 12.0
54.561614778 6.0
54.595037315 9.0
54.628459853 9.0
54.661882390 6.0
54.695304927 6.0
54.728727464 5.0
54.762150002 10.0
54.795572539 11.0
54.828995076 4.0
54.862417613 9.0
54.895840151 10.0
54.929262688 8.0
54.962685225 6.0
54.996107762 2.0
55.029530300 7.0
55.062952837 7.0
55.096375374 8.0
55.129797911 10.0
55.163220449 8.0
55.196642986 9.0
55.230065523 12.0
55.263488060 10.0
55.296910598 4.0
55.330333135 10.0
55.363755672 6.0
55.397178209 5.0
55.430600746 7.0
55.464023284 9.0
55.497445821 6.0
55.530868358 5.0
55.564290895 4.0
55.597713433 11.0
55.631135970 10.0
55.664558507 4.0
55.697981044 7.0
55.731403582 8.0
55.764826119 10.0
55.798248656 10.0
55.831671193 7.0
55.865093731 7.0
55.898516268 7.0
55.931938805 8.0
55.965361342 12.0
55.998783880 5.0
56.032206417 10.0
56.065628954 9.0
56.099051491 11.0
56.132474029 7.0
56.165896566 6.0
56.199319103 8.0
56.232741640 7.0
56.266164178 11.0
56.299586715 11.0
56.333009252 4.0
56.366431789 15.0
56.399854326 17.0
56.433276864 6.0
56.466699401 7.0
56.500121938 6.0
56.533544475 5.0
56.566967013 9.0
56.600389550 13.0
56.633812087 8.0
56.667234624 9.0
56.700657162 2.0
56.734079699 6.0
56.767502236 9.0
56.800924773 9.0
56.834347311 7.0
56.867769848 13.0
56.901192385 6.0
56.934614922 10.0
56.968037460 7.0
57.001459997 5.0
57.034882534 2.0
57.068305071 6.0
57.101727609 6.0
57.135150146 8.0
57.168572683 3.0
57.201995220 7.0
57.235417758 5.0
57.268840295 9.0
57.302262832 10.0
57.335685369 7.0
57.369107907 7.0
57.402530444 5.0
57.435952981 15.0
57.469375518 6.0
57.502798055 10.0
57.536220593 9.0
57.569643130 4.0
57.603065667 10.0
57.636488204 10.0
57.669910742 13.0
57.703333279 7.0
57.736755816 12.0
57.770178353 6.0
57.803600891 10.0
57.837023428 9.0
57.870445965 8.0
57.903868502 5.0
57.937291040 4.0
57.970713577 7.0
58.004136114 5.0
58.037558651 9.0
58.070981189 8.0
58.104403726 8.0
58.137826263 6.0
58.171248800 4.0
58.204671338 8.0
58.238093875 9.0
58.271516412 8.0
58.304938949 4.0
58.338361487 11.0
58.371784024 6.0
58.405206561 5.0
58.438629098 6.0
58.472051635 15.0
58.505474173 9.0
58.538896710 12.0
58.572319247 9.0
58.605741784 8.0
58.639164322 9.0
58.672586859 7.0
58.706009396 12.0
58.739431933 8.0
58.772854471 10.0
58.806277008 10.0
58.839699545 9.0
58.873122082 9.0
58.906544620 4.0
58.939967157 8.0
58.973389694 13.0
59.006812231 12.0
59.040234769 4.0
59.073657306 8.0
59.107079843 8.0
59.140502380 13.0
59.173924918 13.0
59.207347455 5.0
59.240769992 7.0
59.274192529 12.0
59.307615067 6.0
59.341037604 8.0
59.374460141 13.0
59.407882678 10.0
59.441305216 1.0
59.474727753 11.0
59.508150290 10.0
59.541572827 8.0
59.574995364 6.0
59.608417902 9.0
59.641840439 8.0
59.675262976 11.0
59.708685513 5.0
59.742108051 8.0
59.775530588 10.0
59.808953125 7.0
59.842375662 9.0
59.875798200 11.0
59.909220737 9.0
59.942643274 6.0
59.976065811 12.0
60.009488349 7.0
60.042910886 9.0
60.076333423 5.0
60.109755960 6.0
60.143178498 9.0
60.176601035 5.0
60.210023572 6.0
60.243446109 10.0
60.276868647 8.0
60.310291184 9.0
60.343713721 15.0
60.377136258 16.0
60.410558796 4.0
60.443981333 15.0
60.477403870 9.0
60.510826407 6.0
60.544248944 8.0
60.577671482 10.0
60.611094019 9.0
60.644516556 9.0
60.677939093 11.0
60.711361631 7.0
60.744784168 9.0
60.778206705 9.0
60.811629242 4.0
60.845051780 4.0
60.878474317 5.0
60.911896854 9.0
60.945319391 12.0
60.978741929 13.0
61.012164466 10.0
61.045587003 9.0
61.079009540 10.0
61.112432078 9.0
61.145854615 11.0
61.179277152 9.0
61.212699689 9.0
61.246122227 10.0
61.279544764 8.0
61.312967301 17.0
61.346389838 10.0
61.379812376 15.0
61.413234913 9.0
61.446657450 5.0
61.480079987 6.0
61.513502525 9.0
61.546925062 12.0
61.580347599 7.0
61.613770136 12.0
61.647192673 8.0
61.680615211 4.0
61.714037748 17.0
61.747460285 8.0
61.780882822 9.0
61.814305360 7.0
61.847727897 12.0
61.881150434 12.0
61.914572971 12.0
61.947995509 13.0
61.981418046 9.0
62.014840583 9.0
62.048263120 13.0
62.081685658 11.0
62.115108195 7.0
62.148530732 6.0
62.181953269 13.0
62.215375807 8.0
62.248798344 11.0
62.282220881 1.0
62.315643418 9.0
62.349065956 7.0
62.382488493 13.0
62.415911030 10.0
62.449333567 8.0
62.482756105 10.0
62.516178642 17.0
62.549601179 4.0
62.583023716 9.0
62.616446253 10.0
62.649868791 7.0
62.683291328 12.0
62.716713865 7.0
62.750136402 9.0
62.783558940 9.0
62.816981477 9.0
62.850404014 12.0
62.883826551 6.0
62.917249089 6.0
62.950671626 9.0
62.984094163 9.0
63.017516700 9.0
63.050939238 10.0
63.084361775 9.0
63.117784312 13.0
63.151206849 8.0
63.184629387 9.0
63.218051924 9.0
63.251474461 8.0
63.284896998 5.0
63.318319536 6.0
63.351742073 12.0
63.385164610 8.0
63.418587147 9.0
63.452009685 21.0
63.485432222 18.0
63.518854759 11.0
63.552277296 9.0
63.585699834 7.0
63.619122371 8.0
63.652544908 16.0
63.685967445 10.0
63.719389982 10.0
63.752812520 18.0
63.786235057 9.0
63.819657594 18.0
63.853080131 15.0
63.886502669 17.0
63.919925206 12.0
63.953347743 5.0
63.986770280 11.0
64.020192818 17.0
64.053615355 10.0
64.087037892 11.0
64.120460429 15.0
64.153882967 15.0
64.187305504 12.0
64.220728041 8.0
64.254150578 16.0
64.287573116 12.0
64.320995653 6.0
64.354418190 16.0
64.387840727 19.0
64.421263265 11.0
64.454685802 13.0
64.488108339 15.0
64.521530876 13.0
64.554953414 21.0
64.588375951 13.0
64.621798488 18.0
64.655221025 12.0
64.688643562 13.0
64.722066100 12.0
64.755488637 11.0
64.788911174 8.0
64.822333711 10.0
64.855756249 10.0
64.889178786 17.0
64.922601323 18.0
64.956023860 15.0
64.989446398 24.0
65.022868935 15.0
65.056291472 21.0
65.089714009 12.0
65.123136547 9.0
65.156559084 21.0
65.189981621 18.0
65.223404158 16.0
65.256826696 23.0
65.290249233 17.0
65.323671770 13.0
65.357094307 15.0
65.390516845 24.0
65.423939382 19.0
65.457361919 20.0
65.490784456 18.0
65.524206994 23.0
65.557629531 24.0
65.591052068 17.0
65.624474605 13.0
65.657897143 13.0
65.691319680 31.0
65.724742217 12.0
65.758164754 22.0
65.791587291 15.0
65.825009829 25.0
65.858432366 15.0
65.891854903 25.0
65.925277440 22.0
65.958699978 21.0
65.992122515 22.0
66.025545052 22.0
66.058967589 19.0
66.092390127 12.0
66.125812664 21.0
66.159235201 21.0
66.192657738 20.0
66.226080276 27.0
66.259502813 27.0
66.292925350 25.0
66.326347887 29.0
66.359770425 23.0
66.393192962 35.0
66.426615499 26.0
66.460038036 49.0
66.493460574 44.0
66.526883111 72.0
66.560305648 85.0
66.593728185 73.0
66.627150723 59.0
66.660573260 46.0
66.693995797 66.0
66.727418334 82.0
66.760840871 66.0
66.794263409 71.0
66.827685946 65.0
66.861108483 59.0
66.894531020 58.0
66.927953558 59.0
66.961376095 71.0
66.994798632 78.0
67.028221169 81.0
67.061643707 85.0
67.095066244 103.0
67.128488781 79.0
67.161911318 91.0
67.195333856 103.0
67.228756393 73.0
67.262178930 105.0
67.295601467 78.0
67.329024005 91.0
67.362446542 104.0
67.395869079 109.0
67.429291616 96.0
67.462714154 125.0
67.496136691 111.0
67.529559228 117.0
67.562981765 124.0
67.596404303 114.0
67.629826840 123.0
67.663249377 106.0
67.696671914 143.0
67.730094452 164.0
67.763516989 149.0
67.796939526 119.0
67.830362063 138.0
67.863784600 133.0
67.897207138 116.0
67.930629675 131.0
67.964052212 177.0
67.997474749 145.0
68.030897287 163.0
68.064319824 187.0
68.097742361 188.0
68.131164898 189.0
68.164587436 187.0
68.198009973 189.0
68.231432510 192.0
68.264855047 226.0
68.298277585 229.0
68.331700122 237.0
68.365122659 228.0
68.398545196 264.0
68.431967734 255.0
68.465390271 246.0
68.498812808 297.0
68.532235345 348.0
68.565657883 311.0
68.599080420 347.0
68.632502957 430.0
68.665925494 402.0
68.699348032 460.0
68.732770569 483.0
68.766193106 616.0
68.799615643 777.0
68.833038180 1031.0
68.866460718 1180.0
68.899883255 1275.0
68.933305792 1405.0
68.966728329 1939.0
69.000150867 4223.0
69.033573404 7208.0
69.066995941 8185.0
69.100418478 9852.0
69.133841016 13818.0
69.167263553 34557.0
69.200686090 121979.0
69.234108627 49385.0
69.267531165 14322.0
69.300953702 8931.0
69.334376239 9811.0
69.367798776 24957.0
69.401221314 61181.0
69.434643851 21356.0
69.468066388 5767.0
69.501488925 2799.0
69.534911463 1744.0
69.568334000 1347.0
69.601756537 1027.0
69.635179074 886.0
69.668601612 766.0
69.702024149 591.0
69.735446686 610.0
69.768869223 533.0
69.802291761 497.0
69.835714298 465.0
69.869136835 395.0
69.902559372 324.0
69.935981909 340.0
69.969404447 358.0
70.002826984 343.0
70.036249521 302.0
70.069672058 266.0
70.103094596 275.0
70.136517133 285.0
70.169939670 230.0
70.203362207 232.0
70.236784745 257.0
70.270207282 218.0
70.303629819 207.0
70.337052356 191.0
70.370474894 215.0
70.403897431 188.0
70.437319968 149.0
70.470742505 172.0
70.504165043 197.0
70.537587580 155.0
70.571010117 169.0
70.604432654 146.0
70.637855192 146.0
70.671277729 145.0
70.704700266 147.0
70.738122803 119.0
70.771545341 132.0
70.804967878 124.0
70.838390415 128.0
70.871812952 118.0
70.905235489 127.0
70.938658027 123.0
70.972080564 100.0
71.005503101 91.0
71.038925638 97.0
71.072348176 108.0
71.105770713 102.0
71.139193250 108.0
71.172615787 108.0
71.206038325 78.0
71.239460862 102.0
71.272883399 71.0
71.306305936 82.0
71.339728474 72.0
71.373151011 63.0
71.406573548 79.0
71.439996085 87.0
71.473418623 82.0
71.506841160 76.0
71.540263697 66.0
71.573686234 61.0
71.607108772 60.0
71.640531309 61.0
71.673953846 59.0
71.707376383 60.0
71.740798921 55.0
71.774221458 63.0
71.807643995 61.0
71.841066532 52.0
71.874489070 61.0
71.907911607 53.0
71.941334144 50.0
71.974756681 54.0
72.008179218 40.0
72.041601756 49.0
72.075024293 55.0
72.108446830 41.0
72.141869367 43.0
72.175291905 53.0
72.208714442 44.0
72.242136979 36.0
72.275559516 34.0
72.308982054 27.0
72.342404591 37.0
72.375827128 49.0
72.409249665 44.0
72.442672203 29.0
72.476094740 37.0
72.509517277 39.0
72.542939814 33.0
72.576362352 31.0
72.609784889 36.0
72.643207426 31.0
72.676629963 27.0
72.710052501 31.0
72.743475038 24.0
72.776897575 24.0
72.810320112 26.0
72.843742650 29.0
72.877165187 30.0
72.910587724 26.0
72.944010261 21.0
72.977432798 33.0
73.010855336 24.0
73.044277873 25.0
73.077700410 20.0
73.111122947 24.0
73.144545485 20.0
73.177968022 19.0
73.211390559 30.0
73.244813096 21.0
73.278235634 22.0
73.311658171 18.0
73.345080708 15.0
73.378503245 25.0
73.411925783 18.0
73.445348320 15.0
73.478770857 21.0
73.512193394 26.0
73.545615932 26.0
73.579038469 21.0
73.612461006 19.0
73.645883543 18.0
73.679306081 22.0
73.712728618 17.0
73.746151155 11.0
73.779573692 13.0
73.812996230 21.0
73.846418767 17.0
73.879841304 20.0
73.913263841 21.0
73.946686379 19.0
73.980108916 16.0
74.013531453 21.0
74.046953990 15.0
74.080376527 18.0
74.113799065 19.0
74.147221602 16.0
74.180644139 9.0
74.214066676 18.0
74.247489214 17.0
74.280911751 15.0
74.314334288 20.0
74.347756825 19.0
74.381179363 15.0
74.414601900 15.0
74.448024437 17.0
74.481446974 12.0
74.514869512 16.0
74.548292049 15.0
74.581714586 12.0
74.615137123 13.0
74.648559661 16.0
74.681982198 22.0
74.715404735 11.0
74.748827272 16.0
74.782249810 10.0
74.815672347 11.0
74.849094884 17.0
74.882517421 20.0
74.915939959 11.0
74.949362496 18.0
74.982785033 9.0
75.016207570 15.0
75.049630108 19.0
75.083052645 10.0
75.116475182 7.0
75.149897719 11.0
75.183320256 17.0
75.216742794 16.0
75.250165331 16.0
75.283587868 8.0
75.317010405 26.0
75.350432943 16.0
75.383855480 13.0
75.417278017 11.0
75.450700554 12.0
75.484123092 24.0
75.517545629 17.0
75.550968166 15.0
75.584390703 5.0
75.617813241 10.0
75.651235778 19.0
75.684658315 11.0
75.718080852 15.0
75.751503390 9.0
75.784925927 11.0
75.818348464 12.0
75.851771001 7.0
75.885193539 5.0
75.918616076 6.0
75.952038613 16.0
75.985461150 10.0
76.018883688 16.0
76.052306225 11.0
76.085728762 10.0
76.119151299 12.0
76.152573836 13.0
76.185996374 12.0
76.219418911 13.0
76.252841448 15.0
76.286263985 15.0
76.319686523 5.0
76.353109060 16.0
76.386531597 11.0
76.419954134 15.0
76.453376672 9.0
76.486799209 5.0
76.520221746 7.0
76.553644283 8.0
76.587066821 7.0
76.620489358 8.0
76.653911895 13.0
76.687334432 10.0
76.720756970 10.0
76.754179507 16.0
76.787602044 11.0
76.821024581 15.0
76.854447119 13.0
76.887869656 8.0
76.921292193 10.0
76.954714730 19.0
76.988137268 12.0
77.021559805 12.0
77.054982342 8.0
77.088404879 18.0
77.121827417 11.0
77.155249954 7.0
77.188672491 7.0
77.222095028 7.0
77.255517565 6.0
77.288940103 12.0
77.322362640 18.0
77.355785177 8.0
77.389207714 8.0
77.422630252 8.0
77.456052789 11.0
77.489475326 7.0
77.522897863 16.0
77.556320401 7.0
77.589742938 12.0
77.623165475 17.0
77.656588012 11.0
77.690010550 10.0
77.723433087 9.0
77.756855624 7.0
77.790278161 6.0
77.823700699 17.0
77.857123236 11.0
77.890545773 8.0
77.923968310 4.0
77.957390848 10.0
77.990813385 9.0
78.024235922 16.0
78.057658459 15.0
78.091080997 10.0
78.124503534 10.0
78.157926071 12.0
78.191348608 6.0
78.224771145 16.0
78.258193683 9.0
78.291616220 12.0
78.325038757 15.0
78.358461294 15.0
78.391883832 6.0
78.425306369 6.0
78.458728906 7.0
78.492151443 11.0
78.525573981 10.0
78.558996518 4.0
78.592419055 5.0
78.625841592 7.0
78.659264130 9.0
78.692686667 12.0
78.726109204 10.0
78.759531741 7.0
78.792954279 9.0
78.826376816 8.0
78.859799353 8.0
78.893221890 9.0
78.926644428 6.0
78.960066965 8.0
78.993489502 5.0
79.026912039 8.0
79.060334577 11.0
79.093757114 7.0
79.127179651 8.0
79.160602188 7.0
79.194024726 11.0
79.227447263 8.0
79.260869800 7.0
79.294292337 5.0
79.327714874 3.0
79.361137412 9.0
79.394559949 10.0
79.427982486 10.0
79.461405023 5.0
79.494827561 7.0
79.528250098 5.0
79.561672635 10.0
79.595095172 9.0
79.628517710 10.0
79.661940247 6.0
79.695362784 4.0
79.728785321 4.0
79.762207859 8.0
79.795630396 5.0
79.829052933 8.0
79.862475470 7.0
79.895898008 3.0
79.929320545 12.0
79.962743082 7.0
79.996165619 9.0
80.029588157 12.0
80.063010694 15.0
80.096433231 10.0
80.129855768 8.0
80.163278306 10.0
80.196700843 10.0
80.230123380 9.0
80.263545917 10.0
80.296968454 9.0
80.330390992 9.0
80.363813529 5.0
80.397236066 5.0
80.430658603 10.0
80.464081141 8.0
80.497503678 6.0
80.530926215 6.0
80.564348752 7.0
80.597771290 10.0
80.631193827 7.0
80.664616364 6.0
80.698038901 8.0
80.731461439 7.0
80.764883976 7.0
80.798306513 2.0
80.831729050 5.0
80.865151588 12.0
80.898574125 5.0
80.931996662 4.0
80.965419199 6.0
80.998841737 3.0
81.032264274 6.0
81.065686811 17.0
81.099109348 6.0
81.132531886 6.0
81.165954423 9.0
81.199376960 6.0
81.232799497 3.0
81.266222035 5.0
81.299644572 9.0
81.333067109 8.0
81.366489646 8.0
81.399912183 8.0
81.433334721 6.0
81.466757258 9.0
81.500179795 6.0
81.533602332 3.0
81.567024870 8.0
81.600447407 10.0
81.633869944 9.0
81.667292481 7.0
81.700715019 9.0
81.734137556 5.0
81.767560093 8.0
81.800982630 6.0
81.834405168 10.0
81.867827705 4.0
81.901250242 3.0
81.934672779 7.0
81.968095317 6.0
82.001517854 3.0
82.034940391 5.0
82.068362928 5.0
82.101785466 5.0
82.135208003 1.0
82.168630540 7.0
82.202053077 3.0
82.235475615 10.0
82.268898152 3.0
82.302320689 8.0
82.335743226 6.0
82.369165763 0.0
82.402588301 5.0
82.436010838 3.0
82.469433375 5.0
82.502855912 4.0
82.536278450 4.0
82.569700987 9.0
82.603123524 7.0
82.636546061 7.0
82.669968599 10.0
82.703391136 5.0
82.736813673 8.0
82.770236210 10.0
82.803658748 6.0
82.837081285 8.0
82.870503822 5.0
82.903926359 9.0
82.937348897 6.0
82.970771434 6.0
83.004193971 7.0
83.037616508 2.0
83.071039046 3.0
83.104461583 12.0
83.137884120 6.0
83.171306657 6.0
83.204729195 7.0
83.238151732 7.0
83.271574269 3.0
83.304996806 7.0
83.338419344 7.0
83.371841881 10.0
83.405264418 5.0
83.438686955 5.0
83.472109492 3.0
83.505532030 5.0
83.538954567 2.0
83.572377104 7.0
83.605799641 4.0
83.639222179 5.0
83.672644716 5.0
83.706067253 7.0
83.739489790 6.0
83.772912328 5.0
83.806334865 7.0
83.839757402 10.0
83.873179939 7.0
83.906602477 5.0
83.940025014 2.0
83.973447551 4.0
84.006870088 4.0
84.040292626 7.0
84.073715163 8.0
84.107137700 5.0
84.140560237 4.0
84.173982775 7.0
84.207405312 8.0
84.240827849 3.0
84.274250386 7.0
84.307672924 4.0
84.341095461 6.0
84.374517998 6.0
84.407940535 8.0
84.441363072 11.0
84.474785610 8.0
84.508208147 9.0
84.541630684 6.0
84.575053221 5.0
84.608475759 8.0
84.641898296 8.0
84.675320833 7.0
84.708743370 3.0
84.742165908 4.0
84.775588445 7.0
84.809010982 6.0
84.842433519 11.0
84.875856057 5.0
84.909278594 10.0
84.942701131 8.0
84.976123668 3.0
85.009546206 6.0
85.042968743 4.0
85.076391280 4.0
85.109813817 6.0
85.143236355 7.0
85.176658892 4.0
85.210081429 12.0
85.243503966 9.0
85.276926504 9.0
85.310349041 8.0
85.343771578 6.0
85.377194115 1.0
85.410616653 5.0
85.444039190 6.0
85.477461727 7.0
85.510884264 4.0
85.544306801 5.0
85.577729339 5.0
85.611151876 2.0
85.644574413 7.0
85.677996950 5.0
85.711419488 12.0
85.744842025 7.0
85.778264562 7.0
85.811687099 2.0
85.845109637 6.0
85.878532174 5.0
85.911954711 9.0
85.945377248 4.0
85.978799786 5.0
86.012222323 7.0
86.045644860 7.0
86.079067397 5.0
86.112489935 3.0
86.145912472 5.0
86.179335009 3.0
86.212757546 6.0
86.246180084 3.0
86.279602621 3.0
86.313025158 11.0
86.346447695 6.0
86.379870233 2.0
86.413292770 6.0
86.446715307 3.0
86.480137844 10.0
86.513560381 5.0
86.546982919 1.0
86.580405456 4.0
86.613827993 7.0
86.647250530 7.0
86.680673068 3.0
86.714095605 4.0
86.747518142 1.0
86.780940679 8.0
86.814363217 5.0
86.847785754 5.0
86.881208291 6.0
86.914630828 10.0
86.948053366 9.0
86.981475903 11.0
87.014898440 7.0
87.048320977 3.0
87.081743515 5.0
87.115166052 5.0
87.148588589 5.0
87.182011126 7.0
87.215433664 6.0
87.248856201 5.0
87.282278738 6.0
87.315701275 2.0
87.349123813 8.0
87.382546350 3.0
87.415968887 3.0
87.449391424 8.0
87.482813962 3.0
87.516236499 8.0
87.549659036 7.0
87.583081573 3.0
87.616504110 6.0
87.649926648 6.0
87.683349185 4.0
87.716771722 5.0
87.750194259 8.0
87.783616797 5.0
87.817039334 7.0
87.850461871 6.0
87.883884408 8.0
87.917306946 6.0
87.950729483 8.0
87.984152020 6.0
88.017574557 10.0
88.050997095 6.0
88.084419632 9.0
88.117842169 7.0
88.151264706 7.0
88.184687244 3.0
88.218109781 10.0
88.251532318 6.0
88.284954855 3.0
88.318377393 6.0
88.351799930 4.0
88.385222467 7.0
88.418645004 5.0
88.452067542 7.0
88.485490079 9.0
88.518912616 4.0
88.552335153 10.0
88.585757690 5.0
88.619180228 8.0
88.652602765 7.0
88.686025302 8.0
88.719447839 9.0
88.752870377 3.0
88.786292914 10.0
88.819715451 8.0
88.853137988 9.0
88.886560526 6.0
88.919983063 4.0
88.953405600 4.0
88.986828137 9.0
89.020250675 8.0
89.053673212 4.0
89.087095749 4.0
89.120518286 4.0
89.153940824 3.0
89.187363361 5.0
89.220785898 7.0
89.254208435 8.0
89.287630973 4.0
89.321053510 5.0
89.354476047 3.0
89.387898584 5.0
89.421321122 5.0
89.454743659 5.0
89.488166196 9.0
89.521588733 7.0
89.555011271 5.0
89.588433808 4.0
89.621856345 6.0
89.655278882 12.0
89.688701419 9.0
89.722123957 8.0
89.755546494 3.0
89.788969031 5.0
89.822391568 6.0
89.855814106 6.0
89.889236643 7.0
89.922659180 3.0
89.956081717 8.0
89.989504255 9.0
90.022926792 4.0
90.056349329 12.0
90.089771866 11.0
90.123194404 6.0
90.156616941 13.0
90.190039478 6.0
90.223462015 5.0
90.256884553 7.0
90.290307090 10.0
90.323729627 6.0
90.357152164 10.0
90.390574702 11.0
90.423997239 9.0
90.457419776 7.0
90.490842313 10.0
90.524264851 9.0
90.557687388 9.0
90.591109925 10.0
90.624532462 4.0
90.657954999 3.0
90.691377537 11.0
90.724800074 8.0
90.758222611 10.0
90.791645148 9.0
90.825067686 11.0
90.858490223 5.0
90.891912760 11.0
90.925335297 10.0
90.958757835 7.0
90.992180372 10.0
91.025602909 4.0
91.059025446 13.0
91.092447984 9.0
91.125870521 9.0
91.159293058 7.0
91.192715595 6.0
91.226138133 8.0
91.259560670 8.0
91.292983207 12.0
91.326405744 9.0
91.359828282 7.0
91.393250819 13.0
91.426673356 11.0
91.460095893 11.0
91.493518431 10.0
91.526940968 9.0
91.560363505 13.0
91.593786042 17.0
91.627208580 15.0
91.660631117 11.0
91.694053654 18.0
91.727476191 19.0
91.760898728 15.0
91.794321266 3.0
91.827743803 12.0
91.861166340 10.0
91.894588877 18.0
91.928011415 16.0
91.961433952 13.0
91.994856489 8.0
92.028279026 12.0
92.061701564 21.0
92.095124101 17.0
92.128546638 19.0
92.161969175 15.0
92.195391713 20.0
92.228814250 22.0
92.262236787 18.0
92.295659324 24.0
92.329081862 23.0
92.362504399 29.0
92.395926936 20.0
92.429349473 18.0
92.462772011 25.0
92.496194548 21.0
92.529617085 24.0
92.563039622 20.0
92.596462160 21.0
92.629884697 31.0
92.663307234 18.0
92.696729771 25.0
92.730152308 23.0
92.763574846 20.0
92.796997383 17.0
92.830419920 20.0
92.863842457 19.0
92.897264995 26.0
92.930687532 31.0
92.964110069 21.0
92.997532606 25.0
93.030955144 27.0
93.064377681 29.0
93.097800218 25.0
93.131222755 21.0
93.164645293 26.0
93.198067830 20.0
93.231490367 20.0
93.264912904 26.0
93.298335442 18.0
93.331757979 22.0
93.365180516 20.0
93.398603053 17.0
93.432025591 24.0
93.465448128 12.0
93.498870665 26.0
93.532293202 20.0
93.565715740 17.0
93.599138277 22.0
93.632560814 25.0
93.665983351 20.0
93.699405889 23.0
93.732828426 17.0
93.766250963 9.0
93.799673500 19.0
93.833096037 16.0
93.866518575 16.0
93.899941112 23.0
93.933363649 19.0
93.966786186 18.0
94.000208724 13.0
94.033631261 13.0
94.067053798 17.0
94.100476335 12.0
94.133898873 18.0
94.167321410 17.0
94.200743947 18.0
94.234166484 13.0
94.267589022 16.0
94.301011559 11.0
94.334434096 10.0
94.367856633 7.0
94.401279171 16.0
94.434701708 15.0
94.468124245 11.0
94.501546782 13.0
94.534969320 11.0
94.568391857 10.0
94.601814394 12.0
94.635236931 10.0
94.668659469 10.0
94.702082006 13.0
94.735504543 10.0
94.768927080 12.0
94.802349617 10.0
94.835772155 13.0
94.869194692 13.0
94.902617229 7.0
94.936039766 6.0
94.969462304 8.0
95.002884841 6.0
95.036307378 13.0
95.069729915 7.0
95.103152453 10.0
95.136574990 3.0
95.169997527 5.0
95.203420064 3.0
95.236842602 6.0
95.270265139 5.0
95.303687676 7.0
95.337110213 15.0
95.370532751 6.0
95.403955288 4.0
95.437377825 6.0
95.470800362 5.0
95.504222900 9.0
95.537645437 6.0
95.571067974 6.0
95.604490511 9.0
95.637913049 5.0
95.671335586 4.0
95.704758123 10.0
95.738180660 4.0
95.771603198 9.0
95.805025735 8.0
95.838448272 10.0
95.871870809 9.0
95.905293346 7.0
95.938715884 6.0
95.972138421 5.0
96.005560958 3.0
96.038983495 9.0
96.072406033 8.0
96.105828570 7.0
96.139251107 2.0
96.172673644 5.0
96.206096182 7.0
96.239518719 6.0
96.272941256 5.0
96.306363793 3.0
96.339786331 5.0
96.373208868 7.0
96.406631405 6.0
96.440053942 4.0
96.473476480 7.0
96.506899017 9.0
96.540321554 3.0
96.573744091 9.0
96.607166629 5.0
96.640589166 5.0
96.674011703 6.0
96.707434240 7.0
96.740856778 5.0
96.774279315 6.0
96.807701852 7.0
96.841124389 5.0
96.874546926 9.0
96.907969464 6.0
96.941392001 5.0
96.974814538 5.0
97.008237075 5.0
97.041659613 6.0
97.075082150 5.0
97.108504687 6.0
97.141927224 9.0
97.175349762 7.0
97.208772299 8.0
97.242194836 4.0
97.275617373 4.0
97.309039911 3.0
97.342462448 4.0
97.375884985 5.0
97.409307522 16.0
97.442730060 4.0
97.476152597 4.0
97.509575134 6.0
97.542997671 7.0
97.576420209 7.0
97.609842746 4.0
97.643265283 3.0
97.676687820 4.0
97.710110358 2.0
97.743532895 4.0
97.776955432 2.0
97.810377969 7.0
97.843800507 4.0
97.877223044 5.0
97.910645581 3.0
97.944068118 6.0
97.977490655 6.0
98.010913193 8.0
98.044335730 9.0
98.077758267 3.0
98.111180804 4.0
98.144603342 4.0
98.178025879 5.0
98.211448416 6.0
98.244870953 5.0
98.278293491 4.0
98.311716028 1.0
98.345138565 4.0
98.378561102 5.0
98.411983640 10.0
98.445406177 6.0
98.478828714 5.0
98.512251251 4.0
98.545673789 4.0
98.579096326 5.0
98.612518863 2.0
98.645941400 4.0
98.679363938 7.0
98.712786475 4.0
98.746209012 9.0
98.779631549 8.0
98.813054087 3.0
98.846476624 7.0
98.879899161 5.0
98.913321698 10.0
98.946744235 9.0
98.980166773 5.0
99.013589310 2.0
99.047011847 5.0
99.080434384 5.0
99.113856922 1.0
99.147279459 4.0
99.180701996 3.0
99.214124533 6.0
99.247547071 10.0
99.280969608 4.0
99.314392145 5.0
99.347814682 6.0
99.381237220 5.0
99.414659757 8.0
99.448082294 4.0
99.481504831 4.0
99.514927369 3.0
99.548349906 3.0
99.581772443 6.0
99.615194980 3.0
99.648617518 2.0
99.682040055 2.0
99.715462592 3.0
99.748885129 3.0
99.782307667 6.0
99.815730204 5.0
99.849152741 7.0
99.882575278 9.0
99.915997816 4.0
99.949420353 8.0
99.982842890 5.0
