20.002711270 74.0
20.036133807 76.0
20.069556344 81.0
20.102978882 89.0
20.136401419 101.0
20.169823956 90.0
20.203246493 83.0
20.236669031 86.0
20.270091568 92.0
20.303514105 99.0
20.336936642 78.0
20.370359180 79.0
20.403781717 86.0
20.437204254 83.0
20.470626791 81.0
20.504049329 65.0
20.537471866 82.0
20.570894403 72.0
20.604316940 99.0
20.637739478 94.0
20.671162015 94.0
20.704584552 66.0
20.738007089 81.0
20.771429627 71.0
20.804852164 80.0
20.838274701 81.0
20.871697238 78.0
20.905119776 91.0
20.938542313 75.0
20.971964850 82.0
21.005387387 76.0
21.038809925 57.0
21.072232462 88.0
21.105654999 81.0
21.139077536 67.0
21.172500073 74.0
21.205922611 86.0
21.239345148 75.0
21.272767685 72.0
21.306190222 64.0
21.339612760 79.0
21.373035297 78.0
21.406457834 74.0
21.439880371 72.0
21.473302909 87.0
21.506725446 67.0
21.540147983 67.0
21.573570520 76.0
21.606993058 76.0
21.640415595 63.0
21.673838132 68.0
21.707260669 76.0
21.740683207 71.0
21.774105744 82.0
21.807528281 64.0
21.840950818 82.0
21.874373356 68.0
21.907795893 67.0
21.941218430 66.0
21.974640967 80.0
22.008063505 81.0
22.041486042 75.0
22.074908579 66.0
22.108331116 60.0
22.141753653 96.0
22.175176191 64.0
22.208598728 67.0
22.242021265 64.0
22.275443802 74.0
22.308866340 66.0
22.342288877 67.0
22.375711414 72.0
22.409133951 77.0
22.442556489 67.0
22.475979026 66.0
22.509401563 63.0
22.542824100 62.0
22.576246638 68.0
22.609669175 71.0
22.643091712 76.0
22.676514249 88.0
22.709936787 61.0
22.743359324 63.0
22.776781861 63.0
22.810204398 68.0
22.843626936 69.0
22.877049473 73.0
22.910472010 58.0
22.943894547 68.0
22.977317085 69.0
23.010739622 66.0
23.044162159 71.0
23.077584696 81.0
23.111007234 68.0
23.144429771 57.0
23.177852308 76.0
23.211274845 73.0
23.244697382 65.0
23.278119920 54.0
23.311542457 63.0
23.344964994 62.0
23.378387531 63.0
23.411810069 59.0
23.445232606 52.0
23.478655143 73.0
23.512077680 72.0
23.545500218 57.0
23.578922755 63.0
23.612345292 66.0
23.645767829 63.0
23.679190367 63.0
23.712612904 74.0
23.746035441 67.0
23.779457978 72.0
23.812880516 64.0
23.846303053 65.0
23.879725590 66.0
23.913148127 66.0
23.946570665 73.0
23.979993202 57.0
24.013415739 62.0
24.046838276 79.0
24.080260814 79.0
24.113683351 51.0
24.147105888 54.0
24.180528425 51.0
24.213950962 76.0
24.247373500 59.0
24.280796037 58.0
24.314218574 71.0
24.347641111 87.0
24.381063649 53.0
24.414486186 63.0
24.447908723 55.0
24.481331260 52.0
24.514753798 61.0
24.548176335 59.0
24.581598872 55.0
24.615021409 66.0
24.648443947 59.0
24.681866484 60.0
24.715289021 55.0
24.748711558 63.0
24.782134096 58.0
24.815556633 69.0
24.848979170 49.0
24.882401707 76.0
24.915824245 57.0
24.949246782 48.0
24.982669319 63.0
25.016091856 50.0
25.049514394 52.0
25.082936931 51.0
25.116359468 50.0
25.149782005 78.0
25.183204543 68.0
25.216627080 67.0
25.250049617 61.0
25.283472154 74.0
25.316894691 54.0
25.350317229 68.0
25.383739766 69.0
25.417162303 65.0
25.450584840 59.0
25.484007378 61.0
25.517429915 58.0
25.550852452 45.0
25.584274989 60.0
25.617697527 53.0
25.651120064 52.0
25.684542601 49.0
25.717965138 69.0
25.751387676 64.0
25.784810213 60.0
25.818232750 54.0
25.851655287 63.0
25.885077825 62.0
25.918500362 72.0
25.951922899 57.0
25.985345436 68.0
26.018767974 54.0
26.052190511 64.0
26.085613048 53.0
26.119035585 67.0
26.152458123 68.0
26.185880660 63.0
26.219303197 58.0
26.252725734 57.0
26.286148271 48.0
26.319570809 64.0
26.352993346 58.0
26.386415883 71.0
26.419838420 47.0
26.453260958 54.0
26.486683495 60.0
26.520106032 69.0
26.553528569 71.0
26.586951107 45.0
26.620373644 77.0
26.653796181 79.0
26.687218718 64.0
26.720641256 66.0
26.754063793 51.0
26.787486330 54.0
26.820908867 54.0
26.854331405 55.0
26.887753942 58.0
26.921176479 61.0
26.954599016 61.0
26.988021554 76.0
27.021444091 71.0
27.054866628 68.0
27.088289165 50.0
27.121711703 58.0
27.155134240 62.0
27.188556777 64.0
27.221979314 51.0
27.255401852 54.0
27.288824389 51.0
27.322246926 58.0
27.355669463 65.0
27.389092000 80.0
27.422514538 68.0
27.455937075 50.0
27.489359612 63.0
27.522782149 52.0
27.556204687 49.0
27.589627224 68.0
27.623049761 67.0
27.656472298 63.0
27.689894836 60.0
27.723317373 76.0
27.756739910 68.0
27.790162447 83.0
27.823584985 61.0
27.857007522 67.0
27.890430059 53.0
27.923852596 79.0
27.957275134 54.0
27.990697671 63.0
28.024120208 67.0
28.057542745 59.0
28.090965283 72.0
28.124387820 74.0
28.157810357 76.0
28.191232894 62.0
28.224655432 65.0
28.258077969 82.0
28.291500506 67.0
28.324923043 77.0
28.358345580 78.0
28.391768118 64.0
28.425190655 63.0
28.458613192 62.0
28.492035729 64.0
28.525458267 68.0
28.558880804 76.0
28.592303341 72.0
28.625725878 51.0
28.659148416 77.0
28.692570953 78.0
28.725993490 76.0
28.759416027 74.0
28.792838565 72.0
28.826261102 65.0
28.859683639 73.0
28.893106176 58.0
28.926528714 61.0
28.959951251 59.0
28.993373788 75.0
29.026796325 68.0
29.060218863 76.0
29.093641400 76.0
29.127063937 79.0
29.160486474 79.0
29.193909012 68.0
29.227331549 87.0
29.260754086 74.0
29.294176623 81.0
29.327599161 73.0
29.361021698 73.0
29.394444235 74.0
29.427866772 61.0
29.461289309 82.0
29.494711847 87.0
29.528134384 77.0
29.561556921 87.0
29.594979458 74.0
29.628401996 69.0
29.661824533 94.0
29.695247070 82.0
29.728669607 89.0
29.762092145 73.0
29.795514682 65.0
29.828937219 103.0
29.862359756 91.0
29.895782294 94.0
29.929204831 102.0
29.962627368 81.0
29.996049905 89.0
30.029472443 91.0
30.062894980 78.0
30.096317517 90.0
30.129740054 86.0
30.163162592 79.0
30.196585129 97.0
30.230007666 79.0
30.263430203 79.0
30.296852741 96.0
30.330275278 78.0
30.363697815 97.0
30.397120352 88.0
30.430542889 90.0
30.463965427 78.0
30.497387964 74.0
30.530810501 94.0
30.564233038 104.0
30.597655576 99.0
30.631078113 88.0
30.664500650 116.0
30.697923187 88.0
30.731345725 108.0
30.764768262 111.0
30.798190799 107.0
30.831613336 101.0
30.865035874 97.0
30.898458411 110.0
30.931880948 96.0
30.965303485 92.0
30.998726023 106.0
31.032148560 100.0
31.065571097 109.0
31.098993634 109.0
31.132416172 116.0
31.165838709 119.0
31.199261246 120.0
31.232683783 109.0
31.266106321 109.0
31.299528858 94.0
31.332951395 119.0
31.366373932 128.0
31.399796470 115.0
31.433219007 114.0
31.466641544 119.0
31.500064081 120.0
31.533486618 132.0
31.566909156 123.0
31.600331693 122.0
31.633754230 129.0
31.667176767 129.0
31.700599305 141.0
31.734021842 118.0
31.767444379 159.0
31.800866916 147.0
31.834289454 146.0
31.867711991 136.0
31.901134528 160.0
31.934557065 144.0
31.967979603 138.0
32.001402140 173.0
32.034824677 148.0
32.068247214 169.0
32.101669752 164.0
32.135092289 165.0
32.168514826 189.0
32.201937363 161.0
32.235359901 169.0
32.268782438 169.0
32.302204975 180.0
32.335627512 166.0
32.369050050 188.0
32.402472587 177.0
32.435895124 217.0
32.469317661 184.0
32.502740198 207.0
32.536162736 187.0
32.569585273 179.0
32.603007810 195.0
32.636430347 190.0
32.669852885 195.0
32.703275422 200.0
32.736697959 212.0
32.770120496 229.0
32.803543034 205.0
32.836965571 223.0
32.870388108 222.0
32.903810645 249.0
32.937233183 228.0
32.970655720 204.0
33.004078257 232.0
33.037500794 249.0
33.070923332 257.0
33.104345869 263.0
33.137768406 231.0
33.171190943 274.0
33.204613481 257.0
33.238036018 259.0
33.271458555 275.0
33.304881092 284.0
33.338303630 263.0
33.371726167 250.0
33.405148704 266.0
33.438571241 249.0
33.471993779 291.0
33.505416316 262.0
33.538838853 273.0
33.572261390 284.0
33.605683927 278.0
33.639106465 292.0
33.672529002 282.0
33.705951539 264.0
33.739374076 270.0
33.772796614 301.0
33.806219151 259.0
33.839641688 294.0
33.873064225 299.0
33.906486763 286.0
33.939909300 262.0
33.973331837 283.0
34.006754374 291.0
34.040176912 266.0
34.073599449 258.0
34.107021986 264.0
34.140444523 251.0
34.173867061 254.0
34.207289598 219.0
34.240712135 274.0
34.274134672 249.0
34.307557210 260.0
34.340979747 268.0
34.374402284 277.0
34.407824821 296.0
34.441247359 310.0
34.474669896 343.0
34.508092433 334.0
34.541514970 333.0
34.574937507 314.0
34.608360045 306.0
34.641782582 322.0
34.675205119 273.0
34.708627656 246.0
34.742050194 272.0
34.775472731 259.0
34.808895268 282.0
34.842317805 251.0
34.875740343 219.0
34.909162880 236.0
34.942585417 254.0
34.976007954 228.0
35.009430492 228.0
35.042853029 283.0
35.076275566 279.0
35.109698103 291.0
35.143120641 307.0
35.176543178 319.0
35.209965715 319.0
35.243388252 319.0
35.276810790 304.0
35.310233327 324.0
35.343655864 332.0
35.377078401 291.0
35.410500939 314.0
35.443923476 306.0
35.477346013 290.0
35.510768550 283.0
35.544191088 270.0
35.577613625 266.0
35.611036162 252.0
35.644458699 303.0
35.677881236 270.0
35.711303774 310.0
35.744726311 315.0
35.778148848 346.0
35.811571385 353.0
35.844993923 380.0
35.878416460 482.0
35.911838997 553.0
35.945261534 596.0
35.978684072 628.0
36.012106609 715.0
36.045529146 763.0
36.078951683 811.0
36.112374221 864.0
36.145796758 964.0
36.179219295 996.0
36.212641832 1072.0
36.246064370 1014.0
36.279486907 1109.0
36.312909444 1132.0
36.346331981 1155.0
36.379754519 1157.0
36.413177056 1188.0
36.446599593 1138.0
36.480022130 1128.0
36.513444668 1142.0
36.546867205 1071.0
36.580289742 1010.0
36.613712279 976.0
36.647134816 950.0
36.680557354 900.0
36.713979891 858.0
36.747402428 835.0
36.780824965 778.0
36.814247503 698.0
36.847670040 628.0
36.881092577 581.0
36.914515114 524.0
36.947937652 518.0
36.981360189 476.0
37.014782726 408.0
37.048205263 389.0
37.081627801 303.0
37.115050338 298.0
37.148472875 260.0
37.181895412 223.0
37.215317950 203.0
37.248740487 203.0
37.282163024 192.0
37.315585561 188.0
37.349008099 177.0
37.382430636 149.0
37.415853173 157.0
37.449275710 142.0
37.482698248 148.0
37.516120785 117.0
37.549543322 119.0
37.582965859 135.0
37.616388397 123.0
37.649810934 128.0
37.683233471 132.0
37.716656008 110.0
37.750078545 94.0
37.783501083 101.0
37.816923620 103.0
37.850346157 90.0
37.883768694 97.0
37.917191232 83.0
37.950613769 99.0
37.984036306 95.0
38.017458843 95.0
38.050881381 99.0
38.084303918 87.0
38.117726455 93.0
38.151148992 87.0
38.184571530 89.0
38.217994067 87.0
38.251416604 96.0
38.284839141 76.0
38.318261679 93.0
38.351684216 88.0
38.385106753 87.0
38.418529290 99.0
38.451951828 88.0
38.485374365 81.0
38.518796902 85.0
38.552219439 127.0
38.585641977 86.0
38.619064514 90.0
38.652487051 102.0
38.685909588 99.0
38.719332125 71.0
38.752754663 90.0
38.786177200 92.0
38.819599737 89.0
38.853022274 96.0
38.886444812 90.0
38.919867349 104.0
38.953289886 95.0
38.986712423 90.0
39.020134961 85.0
39.053557498 90.0
39.086980035 76.0
39.120402572 85.0
39.153825110 110.0
39.187247647 87.0
39.220670184 93.0
39.254092721 86.0
39.287515259 107.0
39.320937796 85.0
39.354360333 94.0
39.387782870 100.0
39.421205408 94.0
39.454627945 108.0
39.488050482 97.0
39.521473019 104.0
39.554895557 104.0
39.588318094 104.0
39.621740631 79.0
39.655163168 91.0
39.688585706 109.0
39.722008243 89.0
39.755430780 92.0
39.788853317 82.0
39.822275854 82.0
39.855698392 93.0
39.889120929 86.0
39.922543466 79.0
39.955966003 101.0
39.989388541 88.0
40.022811078 92.0
40.056233615 99.0
40.089656152 79.0
40.123078690 104.0
40.156501227 95.0
40.189923764 96.0
40.223346301 80.0
40.256768839 86.0
40.290191376 87.0
40.323613913 101.0
40.357036450 113.0
40.390458988 103.0
40.423881525 87.0
40.457304062 100.0
40.490726599 99.0
40.524149137 110.0
40.557571674 90.0
40.590994211 104.0
40.624416748 94.0
40.657839286 94.0
40.691261823 78.0
40.724684360 88.0
40.758106897 87.0
40.791529434 92.0
40.824951972 101.0
40.858374509 76.0
40.891797046 114.0
40.925219583 113.0
40.958642121 102.0
40.992064658 128.0
41.025487195 129.0
41.058909732 133.0
41.092332270 136.0
41.125754807 123.0
41.159177344 143.0
41.192599881 146.0
41.226022419 145.0
41.259444956 145.0
41.292867493 167.0
41.326290030 157.0
41.359712568 205.0
41.393135105 278.0
41.426557642 519.0
41.459980179 585.0
41.493402717 579.0
41.526825254 552.0
41.560247791 522.0
41.593670328 571.0
41.627092866 622.0
41.660515403 634.0
41.693937940 640.0
41.727360477 734.0
41.760783015 774.0
41.794205552 842.0
41.827628089 872.0
41.861050626 898.0
41.894473163 962.0
41.927895701 1010.0
41.961318238 1129.0
41.994740775 1116.0
42.028163312 1277.0
42.061585850 1346.0
42.095008387 1439.0
42.128430924 1510.0
42.161853461 1496.0
42.195275999 1681.0
42.228698536 1635.0
42.262121073 1902.0
42.295543610 1991.0
42.328966148 2037.0
42.362388685 2143.0
42.395811222 2341.0
42.429233759 2353.0
42.462656297 2550.0
42.496078834 2783.0
42.529501371 3020.0
42.562923908 3281.0
42.596346446 3718.0
42.629768983 4363.0
42.663191520 5093.0
42.696614057 6706.0
42.730036595 9726.0
42.763459132 14822.0
42.796881669 19981.0
42.830304206 30859.0
42.863726743 58250.0
42.897149281 96672.0
42.930571818 198578.0
42.963994355 543081.0
42.997416892 249698.0
43.030839430 112106.0
43.064261967 312014.0
43.097684504 251744.0
43.131107041 47423.0
43.164529579 19395.0
43.197952116 11766.0
43.231374653 8295.0
43.264797190 6381.0
43.298219728 5059.0
43.331642265 4305.0
43.365064802 3584.0
43.398487339 3317.0
43.431909877 2911.0
43.465332414 2752.0
43.498754951 2399.0
43.532177488 2178.0
43.565600026 2131.0
43.599022563 1935.0
43.632445100 1900.0
43.665867637 1796.0
43.699290175 1682.0
43.732712712 1577.0
43.766135249 1492.0
43.799557786 1363.0
43.832980324 1348.0
43.866402861 1257.0
43.899825398 1214.0
43.933247935 1157.0
43.966670472 1086.0
44.000093010 1072.0
44.033515547 980.0
44.066938084 951.0
44.100360621 921.0
44.133783159 846.0
44.167205696 776.0
44.200628233 770.0
44.234050770 712.0
44.267473308 699.0
44.300895845 665.0
44.334318382 578.0
44.367740919 542.0
44.401163457 557.0
44.434585994 514.0
44.468008531 496.0
44.501431068 469.0
44.534853606 430.0
44.568276143 415.0
44.601698680 390.0
44.635121217 369.0
44.668543755 366.0
44.701966292 330.0
44.735388829 338.0
44.768811366 289.0
44.802233904 288.0
44.835656441 264.0
44.869078978 260.0
44.902501515 226.0
44.935924052 234.0
44.969346590 209.0
45.002769127 180.0
45.036191664 201.0
45.069614201 202.0
45.103036739 167.0
45.136459276 156.0
45.169881813 174.0
45.203304350 148.0
45.236726888 137.0
45.270149425 131.0
45.303571962 128.0
45.336994499 121.0
45.370417037 120.0
45.403839574 111.0
45.437262111 109.0
45.470684648 122.0
45.504107186 88.0
45.537529723 117.0
45.570952260 89.0
45.604374797 89.0
45.637797335 79.0
45.671219872 77.0
45.704642409 68.0
45.738064946 79.0
45.771487484 90.0
45.804910021 79.0
45.838332558 66.0
45.871755095 68.0
45.905177633 69.0
45.938600170 65.0
45.972022707 94.0
46.005445244 75.0
46.038867781 54.0
46.072290319 63.0
46.105712856 66.0
46.139135393 66.0
46.172557930 67.0
46.205980468 64.0
46.239403005 66.0
46.272825542 82.0
46.306248079 92.0
46.339670617 73.0
46.373093154 73.0
46.406515691 67.0
46.439938228 91.0
46.473360766 91.0
46.506783303 65.0
46.540205840 65.0
46.573628377 55.0
46.607050915 54.0
46.640473452 76.0
46.673895989 71.0
46.707318526 50.0
46.740741064 57.0
46.774163601 48.0
46.807586138 57.0
46.841008675 52.0
46.874431213 47.0
46.907853750 51.0
46.941276287 55.0
46.974698824 51.0
47.008121362 62.0
47.041543899 52.0
47.074966436 59.0
47.108388973 44.0
47.141811510 49.0
47.175234048 39.0
47.208656585 47.0
47.242079122 39.0
47.275501659 22.0
47.308924197 32.0
47.342346734 35.0
47.375769271 40.0
47.409191808 36.0
47.442614346 31.0
47.476036883 36.0
47.509459420 26.0
47.542881957 35.0
47.576304495 30.0
47.609727032 35.0
47.643149569 40.0
47.676572106 37.0
47.709994644 23.0
47.743417181 34.0
47.776839718 26.0
47.810262255 33.0
47.843684793 27.0
47.877107330 32.0
47.910529867 29.0
47.943952404 20.0
47.977374942 34.0
48.010797479 39.0
48.044220016 31.0
48.077642553 36.0
48.111065090 33.0
48.144487628 20.0
48.177910165 32.0
48.211332702 23.0
48.244755239 20.0
48.278177777 25.0
48.311600314 35.0
48.345022851 19.0
48.378445388 24.0
48.411867926 30.0
48.445290463 25.0
48.478713000 24.0
48.512135537 22.0
48.545558075 38.0
48.578980612 18.0
48.612403149 25.0
48.645825686 18.0
48.679248224 30.0
48.712670761 15.0
48.746093298 25.0
48.779515835 19.0
48.812938373 21.0
48.846360910 18.0
48.879783447 20.0
48.913205984 25.0
48.946628522 27.0
48.980051059 24.0
49.013473596 25.0
49.046896133 21.0
49.080318671 26.0
49.113741208 18.0
49.147163745 20.0
49.180586282 21.0
49.214008819 20.0
49.247431357 17.0
49.280853894 24.0
49.314276431 25.0
49.347698968 22.0
49.381121506 20.0
49.414544043 22.0
49.447966580 12.0
49.481389117 21.0
49.514811655 19.0
49.548234192 25.0
49.581656729 21.0
49.615079266 24.0
49.648501804 18.0
49.681924341 23.0
49.715346878 22.0
49.748769415 15.0
49.782191953 24.0
49.815614490 22.0
49.849037027 20.0
49.882459564 18.0
49.915882102 16.0
49.949304639 24.0
49.982727176 12.0
50.016149713 25.0
50.049572251 15.0
50.082994788 22.0
50.116417325 17.0
50.149839862 20.0
50.183262399 18.0
50.216684937 12.0
50.250107474 13.0
50.283530011 16.0
50.316952548 20.0
50.350375086 16.0
50.383797623 22.0
50.417220160 11.0
50.450642697 21.0
50.484065235 13.0
50.517487772 16.0
50.550910309 21.0
50.584332846 25.0
50.617755384 13.0
50.651177921 20.0
50.684600458 20.0
50.718022995 22.0
50.751445533 13.0
50.784868070 17.0
50.818290607 30.0
50.851713144 17.0
50.885135682 16.0
50.918558219 11.0
50.951980756 18.0
50.985403293 16.0
51.018825831 18.0
51.052248368 18.0
51.085670905 15.0
51.119093442 16.0
51.152515980 20.0
51.185938517 15.0
51.219361054 11.0
51.252783591 10.0
51.286206128 18.0
51.319628666 15.0
51.353051203 13.0
51.386473740 16.0
51.419896277 13.0
51.453318815 19.0
51.486741352 18.0
51.520163889 12.0
51.553586426 27.0
51.587008964 7.0
51.620431501 9.0
51.653854038 17.0
51.687276575 13.0
51.720699113 9.0
51.754121650 17.0
51.787544187 15.0
51.820966724 27.0
51.854389262 13.0
51.887811799 20.0
51.921234336 17.0
51.954656873 8.0
51.988079411 18.0
52.021501948 16.0
52.054924485 13.0
52.088347022 16.0
52.121769560 13.0
52.155192097 17.0
52.188614634 17.0
52.222037171 13.0
52.255459708 9.0
52.288882246 12.0
52.322304783 23.0
52.355727320 19.0
52.389149857 11.0
52.422572395 11.0
52.455994932 13.0
52.489417469 15.0
52.522840006 15.0
52.556262544 15.0
52.589685081 18.0
52.623107618 13.0
52.656530155 15.0
52.689952693 18.0
52.723375230 10.0
52.756797767 15.0
52.790220304 13.0
52.823642842 12.0
52.857065379 15.0
52.890487916 11.0
52.923910453 12.0
52.957332991 17.0
52.990755528 18.0
53.024178065 13.0
53.057600602 11.0
53.091023140 15.0
53.124445677 12.0
53.157868214 10.0
53.191290751 13.0
53.224713289 16.0
53.258135826 20.0
53.291558363 7.0
53.324980900 18.0
53.358403437 16.0
53.391825975 12.0
53.425248512 6.0
53.458671049 15.0
53.492093586 13.0
53.525516124 26.0
53.558938661 12.0
53.592361198 17.0
53.625783735 12.0
53.659206273 17.0
53.692628810 22.0
53.726051347 11.0
53.759473884 15.0
53.792896422 4.0
53.826318959 9.0
53.859741496 11.0
53.893164033 16.0
53.926586571 12.0
53.960009108 12.0
53.993431645 11.0
54.026854182 13.0
54.060276720 11.0
54.093699257 11.0
54.127121794 9.0
54.160544331 12.0
54.193966869 16.0
54.227389406 16.0
54.260811943 8.0
54.294234480 13.0
54.327657017 16.0
54.361079555 16.0
54.394502092 22.0
54.427924629 6.0
54.461347166 9.0
54.494769704 13.0
54.528192241 16.0
54.561614778 19.0
54.595037315 10.0
54.628459853 8.0
54.661882390 17.0
54.695304927 21.0
54.728727464 11.0
54.762150002 24.0
54.795572539 11.0
54.828995076 16.0
54.862417613 15.0
54.895840151 13.0
54.929262688 9.0
54.962685225 13.0
54.996107762 17.0
55.029530300 10.0
55.062952837 18.0
55.096375374 8.0
55.129797911 13.0
55.163220449 5.0
55.196642986 9.0
55.230065523 19.0
55.263488060 10.0
55.296910598 8.0
55.330333135 12.0
55.363755672 12.0
55.397178209 12.0
55.430600746 19.0
55.464023284 6.0
55.497445821 9.0
55.530868358 6.0
55.564290895 10.0
55.597713433 12.0
55.631135970 16.0
55.664558507 22.0
55.697981044 12.0
55.731403582 13.0
55.764826119 7.0
55.798248656 13.0
55.831671193 9.0
55.865093731 8.0
55.898516268 12.0
55.931938805 12.0
55.965361342 10.0
55.998783880 10.0
56.032206417 7.0
56.065628954 12.0
56.099051491 12.0
56.132474029 11.0
56.165896566 13.0
56.199319103 8.0
56.232741640 12.0
56.266164178 12.0
56.299586715 18.0
56.333009252 13.0
56.366431789 9.0
56.399854326 11.0
56.433276864 13.0
56.466699401 18.0
56.500121938 9.0
56.533544475 18.0
56.566967013 13.0
56.600389550 7.0
56.633812087 21.0
56.667234624 10.0
56.700657162 11.0
56.734079699 12.0
56.767502236 8.0
56.800924773 10.0
56.834347311 24.0
56.867769848 9.0
56.901192385 12.0
56.934614922 9.0
56.968037460 6.0
57.001459997 12.0
57.034882534 10.0
57.068305071 7.0
57.101727609 9.0
57.135150146 10.0
57.168572683 8.0
57.201995220 9.0
57.235417758 18.0
57.268840295 13.0
57.302262832 16.0
57.335685369 12.0
57.369107907 6.0
57.402530444 8.0
57.435952981 8.0
57.469375518 15.0
57.502798055 7.0
57.536220593 10.0
57.569643130 15.0
57.603065667 15.0
57.636488204 12.0
57.669910742 15.0
57.703333279 9.0
57.736755816 12.0
57.770178353 11.0
57.803600891 6.0
57.837023428 15.0
57.870445965 7.0
57.903868502 13.0
57.937291040 9.0
57.970713577 11.0
58.004136114 11.0
58.037558651 10.0
58.070981189 3.0
58.104403726 15.0
58.137826263 16.0
58.171248800 18.0
58.204671338 8.0
58.238093875 11.0
58.271516412 12.0
58.304938949 13.0
58.338361487 8.0
58.371784024 15.0
58.405206561 6.0
58.438629098 9.0
58.472051635 10.0
58.505474173 16.0
58.538896710 10.0
58.572319247 15.0
58.605741784 15.0
58.639164322 12.0
58.672586859 6.0
58.706009396 10.0
58.739431933 13.0
58.772854471 6.0
58.806277008 11.0
58.839699545 7.0
58.873122082 12.0
58.906544620 6.0
58.939967157 13.0
58.973389694 9.0
59.006812231 6.0
59.040234769 19.0
59.073657306 6.0
59.107079843 19.0
59.140502380 6.0
59.173924918 8.0
59.207347455 8.0
59.240769992 15.0
59.274192529 12.0
59.307615067 10.0
59.341037604 13.0
59.374460141 11.0
59.407882678 11.0
59.441305216 8.0
59.474727753 6.0
59.508150290 19.0
59.541572827 10.0
59.574995364 16.0
59.608417902 10.0
59.641840439 16.0
59.675262976 15.0
59.708685513 18.0
59.742108051 8.0
59.775530588 5.0
59.808953125 13.0
59.842375662 12.0
59.875798200 15.0
59.909220737 17.0
59.942643274 16.0
59.976065811 10.0
60.009488349 4.0
60.042910886 9.0
60.076333423 17.0
60.109755960 11.0
60.143178498 15.0
60.176601035 12.0
60.210023572 15.0
60.243446109 11.0
60.276868647 11.0
60.310291184 13.0
60.343713721 7.0
60.377136258 15.0
60.410558796 10.0
60.443981333 18.0
60.477403870 10.0
60.510826407 18.0
60.544248944 6.0
60.577671482 15.0
60.611094019 8.0
60.644516556 10.0
60.677939093 5.0
60.711361631 11.0
60.744784168 18.0
60.778206705 9.0
60.811629242 9.0
60.845051780 8.0
60.878474317 9.0
60.911896854 11.0
60.945319391 11.0
60.978741929 13.0
61.012164466 11.0
61.045587003 11.0
61.079009540 12.0
61.112432078 11.0
61.145854615 10.0
61.179277152 6.0
61.212699689 9.0
61.246122227 15.0
61.279544764 9.0
61.312967301 10.0
61.346389838 12.0
61.379812376 10.0
61.413234913 11.0
61.446657450 8.0
61.480079987 11.0
61.513502525 8.0
61.546925062 9.0
61.580347599 13.0
61.613770136 16.0
61.647192673 19.0
61.680615211 12.0
61.714037748 10.0
61.747460285 6.0
61.780882822 18.0
61.814305360 6.0
61.847727897 18.0
61.881150434 17.0
61.914572971 10.0
61.947995509 9.0
61.981418046 16.0
62.014840583 7.0
62.048263120 7.0
62.081685658 5.0
62.115108195 20.0
62.148530732 12.0
62.181953269 9.0
62.215375807 8.0
62.248798344 15.0
62.282220881 8.0
62.315643418 9.0
62.349065956 6.0
62.382488493 10.0
62.415911030 18.0
62.449333567 10.0
62.482756105 18.0
62.516178642 9.0
62.549601179 17.0
62.583023716 12.0
62.616446253 9.0
62.649868791 16.0
62.683291328 8.0
62.716713865 17.0
62.750136402 7.0
62.783558940 8.0
62.816981477 11.0
62.850404014 13.0
62.883826551 16.0
62.917249089 12.0
62.950671626 15.0
62.984094163 22.0
63.017516700 15.0
63.050939238 12.0
63.084361775 11.0
63.117784312 10.0
63.151206849 15.0
63.184629387 11.0
63.218051924 18.0
63.251474461 12.0
63.284896998 7.0
63.318319536 11.0
63.351742073 11.0
63.385164610 17.0
63.418587147 12.0
63.452009685 15.0
63.485432222 15.0
63.518854759 11.0
63.552277296 13.0
63.585699834 12.0
63.619122371 8.0
63.652544908 10.0
63.685967445 17.0
63.719389982 17.0
63.752812520 9.0
63.786235057 10.0
63.819657594 8.0
63.853080131 11.0
63.886502669 16.0
63.919925206 12.0
63.953347743 9.0
63.986770280 13.0
64.020192818 12.0
64.053615355 8.0
64.087037892 7.0
64.120460429 15.0
64.153882967 7.0
64.187305504 17.0
64.220728041 17.0
64.254150578 13.0
64.287573116 10.0
64.320995653 9.0
64.354418190 11.0
64.387840727 13.0
64.421263265 12.0
64.454685802 16.0
64.488108339 12.0
64.521530876 8.0
64.554953414 12.0
64.588375951 10.0
64.621798488 10.0
64.655221025 10.0
64.688643562 7.0
64.722066100 19.0
64.755488637 16.0
64.788911174 10.0
64.822333711 15.0
64.855756249 13.0
64.889178786 13.0
64.922601323 17.0
64.956023860 8.0
64.989446398 18.0
65.022868935 6.0
65.056291472 11.0
65.089714009 19.0
65.123136547 12.0
65.156559084 15.0
65.189981621 11.0
65.223404158 13.0
65.256826696 9.0
65.290249233 15.0
65.323671770 16.0
65.357094307 9.0
65.390516845 18.0
65.423939382 9.0
65.457361919 19.0
65.490784456 18.0
65.524206994 15.0
65.557629531 19.0
65.591052068 12.0
65.624474605 13.0
65.657897143 10.0
65.691319680 7.0
65.724742217 10.0
65.758164754 15.0
65.791587291 16.0
65.825009829 8.0
65.858432366 15.0
65.891854903 10.0
65.925277440 19.0
65.958699978 17.0
65.992122515 22.0
66.025545052 16.0
66.058967589 16.0
66.092390127 19.0
66.125812664 9.0
66.159235201 22.0
66.192657738 13.0
66.226080276 7.0
66.259502813 13.0
66.292925350 16.0
66.326347887 10.0
66.359770425 16.0
66.393192962 16.0
66.426615499 15.0
66.460038036 17.0
66.493460574 15.0
66.526883111 9.0
66.560305648 12.0
66.593728185 8.0
66.627150723 13.0
66.660573260 13.0
66.693995797 9.0
66.727418334 19.0
66.760840871 17.0
66.794263409 16.0
66.827685946 19.0
66.861108483 12.0
66.894531020 17.0
66.927953558 13.0
66.961376095 10.0
66.994798632 19.0
67.028221169 11.0
67.061643707 22.0
67.095066244 10.0
67.128488781 15.0
67.161911318 15.0
67.195333856 18.0
67.228756393 13.0
67.262178930 12.0
67.295601467 13.0
67.329024005 10.0
67.362446542 22.0
67.395869079 19.0
67.429291616 17.0
67.462714154 16.0
67.496136691 13.0
67.529559228 11.0
67.562981765 16.0
67.596404303 18.0
67.629826840 17.0
67.663249377 17.0
67.696671914 8.0
67.730094452 26.0
67.763516989 17.0
67.796939526 10.0
67.830362063 16.0
67.863784600 16.0
67.897207138 9.0
67.930629675 12.0
67.964052212 13.0
67.997474749 15.0
68.030897287 9.0
68.064319824 16.0
68.097742361 15.0
68.131164898 22.0
68.164587436 17.0
68.198009973 23.0
68.231432510 12.0
68.264855047 15.0
68.298277585 18.0
68.331700122 20.0
68.365122659 12.0
68.398545196 11.0
68.431967734 16.0
68.465390271 9.0
68.498812808 19.0
68.532235345 17.0
68.565657883 18.0
68.599080420 16.0
68.632502957 19.0
68.665925494 23.0
68.699348032 16.0
68.732770569 20.0
68.766193106 18.0
68.799615643 15.0
68.833038180 24.0
68.866460718 21.0
68.899883255 18.0
68.933305792 15.0
68.966728329 15.0
69.000150867 25.0
69.033573404 10.0
69.066995941 11.0
69.100418478 11.0
69.133841016 16.0
69.167263553 10.0
69.200686090 21.0
69.234108627 12.0
69.267531165 16.0
69.300953702 15.0
69.334376239 8.0
69.367798776 13.0
69.401221314 15.0
69.434643851 19.0
69.468066388 16.0
69.501488925 15.0
69.534911463 23.0
69.568334000 20.0
69.601756537 16.0
69.635179074 13.0
69.668601612 22.0
69.702024149 23.0
69.735446686 18.0
69.768869223 12.0
69.802291761 9.0
69.835714298 18.0
69.869136835 19.0
69.902559372 18.0
69.935981909 12.0
69.969404447 8.0
70.002826984 16.0
70.036249521 17.0
70.069672058 11.0
70.103094596 15.0
70.136517133 19.0
70.169939670 13.0
70.203362207 16.0
70.236784745 22.0
70.270207282 17.0
70.303629819 18.0
70.337052356 8.0
70.370474894 13.0
70.403897431 11.0
70.437319968 17.0
70.470742505 20.0
70.504165043 23.0
70.537587580 13.0
70.571010117 15.0
70.604432654 18.0
70.637855192 13.0
70.671277729 15.0
70.704700266 21.0
70.738122803 19.0
70.771545341 16.0
70.804967878 15.0
70.838390415 18.0
70.871812952 18.0
70.905235489 16.0
70.938658027 19.0
70.972080564 11.0
71.005503101 9.0
71.038925638 16.0
71.072348176 12.0
71.105770713 18.0
71.139193250 20.0
71.172615787 10.0
71.206038325 22.0
71.239460862 19.0
71.272883399 25.0
71.306305936 18.0
71.339728474 17.0
71.373151011 16.0
71.406573548 18.0
71.439996085 16.0
71.473418623 19.0
71.506841160 22.0
71.540263697 13.0
71.573686234 11.0
71.607108772 19.0
71.640531309 16.0
71.673953846 13.0
71.707376383 19.0
71.740798921 11.0
71.774221458 19.0
71.807643995 13.0
71.841066532 7.0
71.874489070 11.0
71.907911607 5.0
71.941334144 12.0
71.974756681 16.0
72.008179218 17.0
72.041601756 8.0
72.075024293 20.0
72.108446830 18.0
72.141869367 17.0
72.175291905 9.0
72.208714442 9.0
72.242136979 19.0
72.275559516 16.0
72.308982054 13.0
72.342404591 16.0
72.375827128 9.0
72.409249665 11.0
72.442672203 13.0
72.476094740 12.0
72.509517277 11.0
72.542939814 16.0
72.576362352 10.0
72.609784889 13.0
72.643207426 16.0
72.676629963 15.0
72.710052501 13.0
72.743475038 17.0
72.776897575 16.0
72.810320112 13.0
72.843742650 18.0
72.877165187 13.0
72.910587724 22.0
72.944010261 19.0
72.977432798 9.0
73.010855336 22.0
73.044277873 9.0
73.077700410 10.0
73.111122947 20.0
73.144545485 10.0
73.177968022 18.0
73.211390559 21.0
73.244813096 13.0
73.278235634 15.0
73.311658171 13.0
73.345080708 11.0
73.378503245 13.0
73.411925783 18.0
73.445348320 12.0
73.478770857 21.0
73.512193394 18.0
73.545615932 21.0
73.579038469 20.0
73.612461006 20.0
73.645883543 16.0
73.679306081 23.0
73.712728618 25.0
73.746151155 19.0
73.779573692 18.0
73.812996230 15.0
73.846418767 15.0
73.879841304 17.0
73.913263841 13.0
73.946686379 13.0
73.980108916 22.0
74.013531453 17.0
74.046953990 20.0
74.080376527 21.0
74.113799065 9.0
74.147221602 17.0
74.180644139 19.0
74.214066676 9.0
74.247489214 17.0
74.280911751 19.0
74.314334288 16.0
74.347756825 9.0
74.381179363 13.0
74.414601900 19.0
74.448024437 17.0
74.481446974 11.0
74.514869512 9.0
74.548292049 15.0
74.581714586 18.0
74.615137123 15.0
74.648559661 22.0
74.681982198 12.0
74.715404735 10.0
74.748827272 16.0
74.782249810 12.0
74.815672347 17.0
74.849094884 24.0
74.882517421 8.0
74.915939959 16.0
74.949362496 19.0
74.982785033 16.0
75.016207570 18.0
75.049630108 30.0
75.083052645 20.0
75.116475182 24.0
75.149897719 12.0
75.183320256 13.0
75.216742794 20.0
75.250165331 19.0
75.283587868 13.0
75.317010405 13.0
75.350432943 9.0
75.383855480 18.0
75.417278017 17.0
75.450700554 21.0
75.484123092 17.0
75.517545629 12.0
75.550968166 19.0
75.584390703 24.0
75.617813241 25.0
75.651235778 16.0
75.684658315 13.0
75.718080852 17.0
75.751503390 19.0
75.784925927 22.0
75.818348464 23.0
75.851771001 29.0
75.885193539 24.0
75.918616076 24.0
75.952038613 24.0
75.985461150 19.0
76.018883688 18.0
76.052306225 12.0
76.085728762 26.0
76.119151299 26.0
76.152573836 25.0
76.185996374 18.0
76.219418911 19.0
76.252841448 25.0
76.286263985 34.0
76.319686523 30.0
76.353109060 25.0
76.386531597 33.0
76.419954134 31.0
76.453376672 35.0
76.486799209 26.0
76.520221746 25.0
76.553644283 33.0
76.587066821 26.0
76.620489358 39.0
76.653911895 39.0
76.687334432 60.0
76.720756970 65.0
76.754179507 66.0
76.787602044 65.0
76.821024581 64.0
76.854447119 73.0
76.887869656 65.0
76.921292193 75.0
76.954714730 67.0
76.988137268 81.0
77.021559805 117.0
77.054982342 110.0
77.088404879 110.0
77.121827417 104.0
77.155249954 111.0
77.188672491 102.0
77.222095028 120.0
77.255517565 114.0
77.288940103 102.0
77.322362640 139.0
77.355785177 116.0
77.389207714 143.0
77.422630252 149.0
77.456052789 151.0
77.489475326 109.0
77.522897863 121.0
77.556320401 120.0
77.589742938 111.0
77.623165475 130.0
77.656588012 130.0
77.690010550 133.0
77.723433087 134.0
77.756855624 108.0
77.790278161 116.0
77.823700699 114.0
77.857123236 94.0
77.890545773 93.0
77.923968310 78.0
77.957390848 90.0
77.990813385 75.0
78.024235922 101.0
78.057658459 92.0
78.091080997 55.0
78.124503534 96.0
78.157926071 66.0
78.191348608 72.0
78.224771145 62.0
78.258193683 59.0
78.291616220 69.0
78.325038757 61.0
78.358461294 59.0
78.391883832 30.0
78.425306369 43.0
78.458728906 41.0
78.492151443 41.0
78.525573981 33.0
78.558996518 29.0
78.592419055 23.0
78.625841592 27.0
78.659264130 43.0
78.692686667 22.0
78.726109204 21.0
78.759531741 27.0
78.792954279 26.0
78.826376816 25.0
78.859799353 27.0
78.893221890 25.0
78.926644428 18.0
78.960066965 25.0
78.993489502 18.0
79.026912039 19.0
79.060334577 26.0
79.093757114 19.0
79.127179651 22.0
79.160602188 13.0
79.194024726 15.0
79.227447263 15.0
79.260869800 18.0
79.294292337 20.0
79.327714874 24.0
79.361137412 15.0
79.394559949 15.0
79.427982486 18.0
79.461405023 11.0
79.494827561 15.0
79.528250098 19.0
79.561672635 20.0
79.595095172 21.0
79.628517710 15.0
79.661940247 7.0
79.695362784 8.0
79.728785321 13.0
79.762207859 10.0
79.795630396 8.0
79.829052933 19.0
79.862475470 18.0
79.895898008 11.0
79.929320545 8.0
79.962743082 13.0
79.996165619 11.0
80.029588157 7.0
80.063010694 15.0
80.096433231 17.0
80.129855768 12.0
80.163278306 12.0
80.196700843 11.0
80.230123380 10.0
80.263545917 9.0
80.296968454 18.0
80.330390992 12.0
80.363813529 9.0
80.397236066 10.0
80.430658603 13.0
80.464081141 8.0
80.497503678 12.0
80.530926215 7.0
80.564348752 15.0
80.597771290 7.0
80.631193827 15.0
80.664616364 4.0
80.698038901 10.0
80.731461439 12.0
80.764883976 20.0
80.798306513 9.0
80.831729050 10.0
80.865151588 13.0
80.898574125 12.0
80.931996662 11.0
80.965419199 16.0
80.998841737 10.0
81.032264274 7.0
81.065686811 11.0
81.099109348 17.0
81.132531886 9.0
81.165954423 8.0
81.199376960 7.0
81.232799497 11.0
81.266222035 21.0
81.299644572 11.0
81.333067109 11.0
81.366489646 9.0
81.399912183 13.0
81.433334721 19.0
81.466757258 9.0
81.500179795 8.0
81.533602332 11.0
81.567024870 7.0
81.600447407 21.0
81.633869944 15.0
81.667292481 19.0
81.700715019 11.0
81.734137556 10.0
81.767560093 15.0
81.800982630 10.0
81.834405168 13.0
81.867827705 9.0
81.901250242 4.0
81.934672779 7.0
81.968095317 9.0
82.001517854 13.0
82.034940391 10.0
82.068362928 12.0
82.101785466 16.0
82.135208003 5.0
82.168630540 7.0
82.202053077 7.0
82.235475615 16.0
82.268898152 9.0
82.302320689 10.0
82.335743226 13.0
82.369165763 16.0
82.402588301 18.0
82.436010838 13.0
82.469433375 8.0
82.502855912 17.0
82.536278450 10.0
82.569700987 15.0
82.603123524 15.0
82.636546061 7.0
82.669968599 8.0
82.703391136 6.0
82.736813673 9.0
82.770236210 12.0
82.803658748 9.0
82.837081285 12.0
82.870503822 16.0
82.903926359 15.0
82.937348897 16.0
82.970771434 12.0
83.004193971 16.0
83.037616508 7.0
83.071039046 10.0
83.104461583 15.0
83.137884120 9.0
83.171306657 9.0
83.204729195 17.0
83.238151732 8.0
83.271574269 10.0
83.304996806 7.0
83.338419344 15.0
83.371841881 15.0
83.405264418 15.0
83.438686955 10.0
83.472109492 10.0
83.505532030 12.0
83.538954567 12.0
83.572377104 10.0
83.605799641 9.0
83.639222179 15.0
83.672644716 13.0
83.706067253 3.0
83.739489790 11.0
83.772912328 11.0
83.806334865 12.0
83.839757402 15.0
83.873179939 9.0
83.906602477 15.0
83.940025014 12.0
83.973447551 10.0
84.006870088 10.0
84.040292626 11.0
84.073715163 11.0
84.107137700 10.0
84.140560237 11.0
84.173982775 12.0
84.207405312 16.0
84.240827849 12.0
84.274250386 10.0
84.307672924 12.0
84.341095461 12.0
84.374517998 13.0
84.407940535 12.0
84.441363072 21.0
84.474785610 13.0
84.508208147 11.0
84.541630684 13.0
84.575053221 17.0
84.608475759 11.0
84.641898296 9.0
84.675320833 11.0
84.708743370 12.0
84.742165908 9.0
84.775588445 18.0
84.809010982 8.0
84.842433519 18.0
84.875856057 15.0
84.909278594 10.0
84.942701131 17.0
84.976123668 17.0
85.009546206 12.0
85.042968743 17.0
85.076391280 16.0
85.109813817 7.0
85.143236355 13.0
85.176658892 19.0
85.210081429 13.0
85.243503966 11.0
85.276926504 20.0
85.310349041 11.0
85.343771578 20.0
85.377194115 13.0
85.410616653 8.0
85.444039190 5.0
85.477461727 13.0
85.510884264 13.0
85.544306801 11.0
85.577729339 16.0
85.611151876 6.0
85.644574413 11.0
85.677996950 15.0
85.711419488 7.0
85.744842025 12.0
85.778264562 18.0
85.811687099 16.0
85.845109637 15.0
85.878532174 11.0
85.911954711 13.0
85.945377248 7.0
85.978799786 15.0
86.012222323 13.0
86.045644860 20.0
86.079067397 12.0
86.112489935 16.0
86.145912472 4.0
86.179335009 10.0
86.212757546 17.0
86.246180084 21.0
86.279602621 16.0
86.313025158 12.0
86.346447695 15.0
86.379870233 17.0
86.413292770 11.0
86.446715307 18.0
86.480137844 10.0
86.513560381 15.0
86.546982919 13.0
86.580405456 13.0
86.613827993 8.0
86.647250530 10.0
86.680673068 17.0
86.714095605 12.0
86.747518142 15.0
86.780940679 16.0
86.814363217 11.0
86.847785754 17.0
86.881208291 9.0
86.914630828 9.0
86.948053366 17.0
86.981475903 17.0
87.014898440 11.0
87.048320977 19.0
87.081743515 15.0
87.115166052 12.0
87.148588589 23.0
87.182011126 19.0
87.215433664 16.0
87.248856201 15.0
87.282278738 18.0
87.315701275 10.0
87.349123813 15.0
87.382546350 9.0
87.415968887 10.0
87.449391424 15.0
87.482813962 13.0
87.516236499 13.0
87.549659036 27.0
87.583081573 15.0
87.616504110 20.0
87.649926648 21.0
87.683349185 15.0
87.716771722 30.0
87.750194259 9.0
87.783616797 17.0
87.817039334 12.0
87.850461871 13.0
87.883884408 19.0
87.917306946 17.0
87.950729483 10.0
87.984152020 20.0
88.017574557 11.0
88.050997095 19.0
88.084419632 10.0
88.117842169 22.0
88.151264706 24.0
88.184687244 11.0
88.218109781 7.0
88.251532318 12.0
88.284954855 16.0
88.318377393 22.0
88.351799930 27.0
88.385222467 19.0
88.418645004 16.0
88.452067542 15.0
88.485490079 20.0
88.518912616 25.0
88.552335153 18.0
88.585757690 23.0
88.619180228 20.0
88.652602765 13.0
88.686025302 19.0
88.719447839 22.0
88.752870377 17.0
88.786292914 19.0
88.819715451 17.0
88.853137988 16.0
88.886560526 19.0
88.919983063 13.0
88.953405600 22.0
88.986828137 12.0
89.020250675 16.0
89.053673212 25.0
89.087095749 19.0
89.120518286 17.0
89.153940824 20.0
89.187363361 26.0
89.220785898 26.0
89.254208435 19.0
89.287630973 23.0
89.321053510 25.0
89.354476047 20.0
89.387898584 20.0
89.421321122 19.0
89.454743659 20.0
89.488166196 27.0
89.521588733 26.0
89.555011271 22.0
89.588433808 23.0
89.621856345 20.0
89.655278882 27.0
89.688701419 31.0
89.722123957 20.0
89.755546494 26.0
89.788969031 32.0
89.822391568 30.0
89.855814106 34.0
89.889236643 30.0
89.922659180 40.0
89.956081717 51.0
89.989504255 63.0
90.022926792 68.0
90.056349329 64.0
90.089771866 60.0
90.123194404 51.0
90.156616941 38.0
90.190039478 44.0
90.223462015 51.0
90.256884553 63.0
90.290307090 60.0
90.323729627 46.0
90.357152164 51.0
90.390574702 51.0
90.423997239 53.0
90.457419776 69.0
90.490842313 60.0
90.524264851 80.0
90.557687388 57.0
90.591109925 78.0
90.624532462 64.0
90.657954999 74.0
90.691377537 62.0
90.724800074 74.0
90.758222611 63.0
90.791645148 67.0
90.825067686 58.0
90.858490223 75.0
90.891912760 66.0
90.925335297 73.0
90.958757835 91.0
90.992180372 60.0
91.025602909 79.0
91.059025446 81.0
91.092447984 82.0
91.125870521 81.0
91.159293058 88.0
91.192715595 83.0
91.226138133 99.0
91.259560670 94.0
91.292983207 80.0
91.326405744 95.0
91.359828282 90.0
91.393250819 78.0
91.426673356 81.0
91.460095893 83.0
91.493518431 88.0
91.526940968 85.0
91.560363505 79.0
91.593786042 80.0
91.627208580 97.0
91.660631117 95.0
91.694053654 104.0
91.727476191 94.0
91.760898728 91.0
91.794321266 101.0
91.827743803 120.0
91.861166340 107.0
91.894588877 103.0
91.928011415 120.0
91.961433952 108.0
91.994856489 134.0
92.028279026 114.0
92.061701564 139.0
92.095124101 113.0
92.128546638 129.0
92.161969175 121.0
92.195391713 130.0
92.228814250 157.0
92.262236787 166.0
92.295659324 151.0
92.329081862 139.0
92.362504399 175.0
92.395926936 170.0
92.429349473 150.0
92.462772011 166.0
92.496194548 174.0
92.529617085 172.0
92.563039622 188.0
92.596462160 208.0
92.629884697 220.0
92.663307234 208.0
92.696729771 181.0
92.730152308 226.0
92.763574846 192.0
92.796997383 191.0
92.830419920 220.0
92.863842457 226.0
92.897264995 234.0
92.930687532 260.0
92.964110069 269.0
92.997532606 241.0
93.030955144 275.0
93.064377681 304.0
93.097800218 297.0
93.131222755 303.0
93.164645293 329.0
93.198067830 352.0
93.231490367 332.0
93.264912904 324.0
93.298335442 352.0
93.331757979 455.0
93.365180516 420.0
93.398603053 569.0
93.432025591 676.0
93.465448128 736.0
93.498870665 995.0
93.532293202 1034.0
93.565715740 1083.0
93.599138277 1121.0
93.632560814 1088.0
93.665983351 1061.0
93.699405889 1186.0
93.732828426 1283.0
93.766250963 1457.0
93.799673500 1938.0
93.833096037 2467.0
93.866518575 3373.0
93.899941112 4860.0
93.933363649 7497.0
93.966786186 13367.0
94.000208724 26028.0
94.033631261 69254.0
94.067053798 126028.0
94.100476335 60782.0
94.133898873 23796.0
94.167321410 11322.0
94.200743947 7850.0
94.234166484 7106.0
94.267589022 8862.0
94.301011559 14991.0
94.334434096 35389.0
94.367856633 63894.0
94.401279171 37758.0
94.434701708 15158.0
94.468124245 7283.0
94.501546782 4017.0
94.534969320 2782.0
94.568391857 2106.0
94.601814394 1647.0
94.635236931 1410.0
94.668659469 1155.0
94.702082006 1051.0
94.735504543 937.0
94.768927080 777.0
94.802349617 723.0
94.835772155 685.0
94.869194692 616.0
94.902617229 559.0
94.936039766 485.0
94.969462304 510.0
95.002884841 498.0
95.036307378 422.0
95.069729915 431.0
95.103152453 400.0
95.136574990 353.0
95.169997527 344.0
95.203420064 305.0
95.236842602 356.0
95.270265139 307.0
95.303687676 285.0
95.337110213 314.0
95.370532751 241.0
95.403955288 280.0
95.437377825 274.0
95.470800362 235.0
95.504222900 277.0
95.537645437 228.0
95.571067974 212.0
95.604490511 242.0
95.637913049 217.0
95.671335586 246.0
95.704758123 243.0
95.738180660 220.0
95.771603198 188.0
95.805025735 183.0
95.838448272 197.0
95.871870809 211.0
95.905293346 201.0
95.938715884 220.0
95.972138421 192.0
96.005560958 186.0
96.038983495 204.0
96.072406033 166.0
96.105828570 164.0
96.139251107 164.0
96.172673644 155.0
96.206096182 160.0
96.239518719 190.0
96.272941256 167.0
96.306363793 158.0
96.339786331 133.0
96.373208868 158.0
96.406631405 135.0
96.440053942 131.0
96.473476480 144.0
96.506899017 132.0
96.540321554 133.0
96.573744091 127.0
96.607166629 117.0
96.640589166 120.0
96.674011703 121.0
96.707434240 147.0
96.740856778 89.0
96.774279315 156.0
96.807701852 150.0
96.841124389 120.0
96.874546926 116.0
96.907969464 127.0
96.941392001 131.0
96.974814538 123.0
97.008237075 104.0
97.041659613 117.0
97.075082150 93.0
97.108504687 106.0
97.141927224 101.0
97.175349762 97.0
97.208772299 110.0
97.242194836 101.0
97.275617373 100.0
97.309039911 105.0
97.342462448 71.0
97.375884985 111.0
97.409307522 114.0
97.442730060 90.0
97.476152597 76.0
97.509575134 88.0
97.542997671 92.0
97.576420209 82.0
97.609842746 78.0
97.643265283 81.0
97.676687820 91.0
97.710110358 96.0
97.743532895 90.0
97.776955432 63.0
97.810377969 65.0
97.843800507 81.0
97.877223044 59.0
97.910645581 62.0
97.944068118 68.0
97.977490655 64.0
98.010913193 64.0
98.044335730 72.0
98.077758267 57.0
98.111180804 71.0
98.144603342 58.0
98.178025879 62.0
98.211448416 66.0
98.244870953 61.0
98.278293491 55.0
98.311716028 66.0
98.345138565 57.0
98.378561102 50.0
98.411983640 64.0
98.445406177 62.0
98.478828714 55.0
98.512251251 50.0
98.545673789 66.0
98.579096326 38.0
98.612518863 53.0
98.645941400 41.0
98.679363938 46.0
98.712786475 48.0
98.746209012 47.0
98.779631549 53.0
98.813054087 40.0
98.846476624 54.0
98.879899161 46.0
98.913321698 41.0
98.946744235 34.0
98.980166773 41.0
99.013589310 41.0
99.047011847 43.0
99.080434384 43.0
99.113856922 41.0
99.147279459 44.0
99.180701996 40.0
99.214124533 50.0
99.247547071 49.0
99.280969608 54.0
99.314392145 33.0
99.347814682 35.0
99.381237220 39.0
99.414659757 32.0
99.448082294 38.0
99.481504831 43.0
99.514927369 33.0
99.548349906 32.0
99.581772443 39.0
99.615194980 34.0
99.648617518 33.0
99.682040055 34.0
99.715462592 33.0
99.748885129 24.0
99.782307667 30.0
99.815730204 31.0
99.849152741 40.0
99.882575278 27.0
99.915997816 33.0
99.949420353 49.0
99.982842890 38.0
