20.002711270 69.0
20.036133807 86.0
20.069556344 80.0
20.102978882 89.0
20.136401419 61.0
20.169823956 78.0
20.203246493 69.0
20.236669031 93.0
20.270091568 79.0
20.303514105 72.0
20.336936642 91.0
20.370359180 87.0
20.403781717 75.0
20.437204254 76.0
20.470626791 86.0
20.504049329 88.0
20.537471866 65.0
20.570894403 85.0
20.604316940 63.0
20.637739478 73.0
20.671162015 83.0
20.704584552 80.0
20.738007089 76.0
20.771429627 61.0
20.804852164 64.0
20.838274701 88.0
20.871697238 86.0
20.905119776 77.0
20.938542313 79.0
20.971964850 88.0
21.005387387 77.0
21.038809925 88.0
21.072232462 74.0
21.105654999 58.0
21.139077536 73.0
21.172500073 86.0
21.205922611 71.0
21.239345148 79.0
21.272767685 74.0
21.306190222 81.0
21.339612760 86.0
21.373035297 76.0
21.406457834 79.0
21.439880371 72.0
21.473302909 68.0
21.506725446 73.0
21.540147983 81.0
21.573570520 83.0
21.606993058 68.0
21.640415595 82.0
21.673838132 64.0
21.707260669 69.0
21.740683207 87.0
21.774105744 58.0
21.807528281 64.0
21.840950818 69.0
21.874373356 49.0
21.907795893 72.0
21.941218430 74.0
21.974640967 53.0
22.008063505 81.0
22.041486042 59.0
22.074908579 80.0
22.108331116 72.0
22.141753653 73.0
22.175176191 60.0
22.208598728 72.0
22.242021265 58.0
22.275443802 49.0
22.308866340 64.0
22.342288877 61.0
22.375711414 71.0
22.409133951 60.0
22.442556489 60.0
22.475979026 69.0
22.509401563 59.0
22.542824100 65.0
22.576246638 68.0
22.609669175 59.0
22.643091712 66.0
22.676514249 76.0
22.709936787 59.0
22.743359324 88.0
22.776781861 67.0
22.810204398 69.0
22.843626936 63.0
22.877049473 72.0
22.910472010 75.0
22.943894547 55.0
22.977317085 72.0
23.010739622 61.0
23.044162159 55.0
23.077584696 66.0
23.111007234 67.0
23.144429771 59.0
23.177852308 62.0
23.211274845 62.0
23.244697382 65.0
23.278119920 49.0
23.311542457 66.0
23.344964994 58.0
23.378387531 61.0
23.411810069 72.0
23.445232606 58.0
23.478655143 67.0
23.512077680 72.0
23.545500218 51.0
23.578922755 45.0
23.612345292 62.0
23.645767829 61.0
23.679190367 62.0
23.712612904 74.0
23.746035441 63.0
23.779457978 45.0
23.812880516 54.0
23.846303053 61.0
23.879725590 76.0
23.913148127 51.0
23.946570665 50.0
23.979993202 58.0
24.013415739 63.0
24.046838276 40.0
24.080260814 58.0
24.113683351 72.0
24.147105888 59.0
24.180528425 53.0
24.213950962 53.0
24.247373500 81.0
24.280796037 61.0
24.314218574 44.0
24.347641111 62.0
24.381063649 43.0
24.414486186 60.0
24.447908723 57.0
24.481331260 55.0
24.514753798 52.0
24.548176335 51.0
24.581598872 62.0
24.615021409 57.0
24.648443947 61.0
24.681866484 50.0
24.715289021 62.0
24.748711558 62.0
24.782134096 49.0
24.815556633 36.0
24.848979170 58.0
24.882401707 59.0
24.915824245 65.0
24.949246782 51.0
24.982669319 59.0
25.016091856 60.0
25.049514394 50.0
25.082936931 58.0
25.116359468 52.0
25.149782005 60.0
25.183204543 51.0
25.216627080 39.0
25.250049617 63.0
25.283472154 59.0
25.316894691 58.0
25.350317229 51.0
25.383739766 65.0
25.417162303 46.0
25.450584840 55.0
25.484007378 53.0
25.517429915 59.0
25.550852452 72.0
25.584274989 40.0
25.617697527 45.0
25.651120064 52.0
25.684542601 51.0
25.717965138 51.0
25.751387676 58.0
25.784810213 60.0
25.818232750 51.0
25.851655287 57.0
25.885077825 57.0
25.918500362 46.0
25.951922899 58.0
25.985345436 45.0
26.018767974 46.0
26.052190511 57.0
26.085613048 66.0
26.119035585 41.0
26.152458123 54.0
26.185880660 50.0
26.219303197 53.0
26.252725734 65.0
26.286148271 46.0
26.319570809 59.0
26.352993346 52.0
26.386415883 62.0
26.419838420 57.0
26.453260958 51.0
26.486683495 39.0
26.520106032 52.0
26.553528569 46.0
26.586951107 62.0
26.620373644 40.0
26.653796181 50.0
26.687218718 50.0
26.720641256 60.0
26.754063793 50.0
26.787486330 41.0
26.820908867 58.0
26.854331405 55.0
26.887753942 59.0
26.921176479 52.0
26.954599016 45.0
26.988021554 54.0
27.021444091 48.0
27.054866628 48.0
27.088289165 61.0
27.121711703 54.0
27.155134240 48.0
27.188556777 49.0
27.221979314 46.0
27.255401852 53.0
27.288824389 52.0
27.322246926 53.0
27.355669463 51.0
27.389092000 47.0
27.422514538 55.0
27.455937075 58.0
27.489359612 53.0
27.522782149 37.0
27.556204687 47.0
27.589627224 58.0
27.623049761 52.0
27.656472298 51.0
27.689894836 55.0
27.723317373 51.0
27.756739910 62.0
27.790162447 50.0
27.823584985 66.0
27.857007522 48.0
27.890430059 47.0
27.923852596 51.0
27.957275134 47.0
27.990697671 54.0
28.024120208 43.0
28.057542745 41.0
28.090965283 48.0
28.124387820 66.0
28.157810357 50.0
28.191232894 46.0
28.224655432 38.0
28.258077969 58.0
28.291500506 54.0
28.324923043 49.0
28.358345580 51.0
28.391768118 50.0
28.425190655 59.0
28.458613192 47.0
28.492035729 51.0
28.525458267 50.0
28.558880804 53.0
28.592303341 54.0
28.625725878 44.0
28.659148416 46.0
28.692570953 52.0
28.725993490 47.0
28.759416027 59.0
28.792838565 53.0
28.826261102 65.0
28.859683639 53.0
28.893106176 64.0
28.926528714 51.0
28.959951251 51.0
28.993373788 41.0
29.026796325 63.0
29.060218863 63.0
29.093641400 50.0
29.127063937 64.0
29.160486474 48.0
29.193909012 54.0
29.227331549 67.0
29.260754086 52.0
29.294176623 55.0
29.327599161 62.0
29.361021698 52.0
29.394444235 38.0
29.427866772 61.0
29.461289309 45.0
29.494711847 59.0
29.528134384 54.0
29.561556921 58.0
29.594979458 46.0
29.628401996 55.0
29.661824533 58.0
29.695247070 66.0
29.728669607 51.0
29.762092145 53.0
29.795514682 72.0
29.828937219 59.0
29.862359756 54.0
29.895782294 58.0
29.929204831 66.0
29.962627368 61.0
29.996049905 55.0
30.029472443 58.0
30.062894980 53.0
30.096317517 65.0
30.129740054 61.0
30.163162592 67.0
30.196585129 53.0
30.230007666 57.0
30.263430203 62.0
30.296852741 50.0
30.330275278 53.0
30.363697815 73.0
30.397120352 63.0
30.430542889 61.0
30.463965427 51.0
30.497387964 74.0
30.530810501 58.0
30.564233038 62.0
30.597655576 61.0
30.631078113 72.0
30.664500650 61.0
30.697923187 67.0
30.731345725 68.0
30.764768262 55.0
30.798190799 77.0
30.831613336 75.0
30.865035874 65.0
30.898458411 68.0
30.931880948 69.0
30.965303485 73.0
30.998726023 85.0
31.032148560 74.0
31.065571097 76.0
31.098993634 76.0
31.132416172 71.0
31.165838709 74.0
31.199261246 67.0
31.232683783 71.0
31.266106321 83.0
31.299528858 83.0
31.332951395 73.0
31.366373932 67.0
31.399796470 73.0
31.433219007 82.0
31.466641544 63.0
31.500064081 54.0
31.533486618 88.0
31.566909156 73.0
31.600331693 87.0
31.633754230 88.0
31.667176767 92.0
31.700599305 83.0
31.734021842 74.0
31.767444379 77.0
31.800866916 80.0
31.834289454 72.0
31.867711991 64.0
31.901134528 60.0
31.934557065 82.0
31.967979603 74.0
32.001402140 87.0
32.034824677 77.0
32.068247214 85.0
32.101669752 91.0
32.135092289 86.0
32.168514826 96.0
32.201937363 81.0
32.235359901 85.0
32.268782438 100.0
32.302204975 75.0
32.335627512 80.0
32.369050050 85.0
32.402472587 89.0
32.435895124 101.0
32.469317661 107.0
32.502740198 97.0
32.536162736 123.0
32.569585273 96.0
32.603007810 114.0
32.636430347 110.0
32.669852885 103.0
32.703275422 111.0
32.736697959 100.0
32.770120496 107.0
32.803543034 119.0
32.836965571 103.0
32.870388108 99.0
32.903810645 115.0
32.937233183 102.0
32.970655720 127.0
33.004078257 136.0
33.037500794 238.0
33.070923332 157.0
33.104345869 171.0
33.137768406 223.0
33.171190943 131.0
33.204613481 119.0
33.238036018 142.0
33.271458555 130.0
33.304881092 131.0
33.338303630 144.0
33.371726167 131.0
33.405148704 111.0
33.438571241 142.0
33.471993779 132.0
33.505416316 127.0
33.538838853 113.0
33.572261390 128.0
33.605683927 139.0
33.639106465 155.0
33.672529002 142.0
33.705951539 134.0
33.739374076 145.0
33.772796614 148.0
33.806219151 144.0
33.839641688 107.0
33.873064225 144.0
33.906486763 137.0
33.939909300 139.0
33.973331837 152.0
34.006754374 147.0
34.040176912 161.0
34.073599449 165.0
34.107021986 149.0
34.140444523 136.0
34.173867061 144.0
34.207289598 162.0
34.240712135 139.0
34.274134672 148.0
34.307557210 149.0
34.340979747 156.0
34.374402284 143.0
34.407824821 138.0
34.441247359 136.0
34.474669896 148.0
34.508092433 158.0
34.541514970 137.0
34.574937507 160.0
34.608360045 158.0
34.641782582 170.0
34.675205119 181.0
34.708627656 132.0
34.742050194 161.0
34.775472731 150.0
34.808895268 122.0
34.842317805 165.0
34.875740343 159.0
34.909162880 148.0
34.942585417 144.0
34.976007954 136.0
35.009430492 136.0
35.042853029 171.0
35.076275566 165.0
35.109698103 169.0
35.143120641 143.0
35.176543178 160.0
35.209965715 171.0
35.243388252 172.0
35.276810790 177.0
35.310233327 175.0
35.343655864 180.0
35.377078401 153.0
35.410500939 195.0
35.443923476 169.0
35.477346013 167.0
35.510768550 176.0
35.544191088 156.0
35.577613625 201.0
35.611036162 191.0
35.644458699 147.0
35.677881236 180.0
35.711303774 153.0
35.744726311 171.0
35.778148848 164.0
35.811571385 158.0
35.844993923 160.0
35.878416460 171.0
35.911838997 164.0
35.945261534 170.0
35.978684072 176.0
36.012106609 215.0
36.045529146 206.0
36.078951683 261.0
36.112374221 249.0
36.145796758 277.0
36.179219295 255.0
36.212641832 310.0
36.246064370 287.0
36.279486907 369.0
36.312909444 373.0
36.346331981 380.0
36.379754519 369.0
36.413177056 387.0
36.446599593 442.0
36.480022130 398.0
36.513444668 432.0
36.546867205 447.0
36.580289742 425.0
36.613712279 433.0
36.647134816 416.0
36.680557354 438.0
36.713979891 415.0
36.747402428 406.0
36.780824965 390.0
36.814247503 390.0
36.847670040 354.0
36.881092577 343.0
36.914515114 327.0
36.947937652 321.0
36.981360189 277.0
37.014782726 254.0
37.048205263 271.0
37.081627801 250.0
37.115050338 235.0
37.148472875 228.0
37.181895412 185.0
37.215317950 155.0
37.248740487 145.0
37.282163024 155.0
37.315585561 147.0
37.349008099 125.0
37.382430636 127.0
37.415853173 125.0
37.449275710 123.0
37.482698248 123.0
37.516120785 91.0
37.549543322 116.0
37.582965859 120.0
37.616388397 111.0
37.649810934 82.0
37.683233471 100.0
37.716656008 103.0
37.750078545 87.0
37.783501083 97.0
37.816923620 106.0
37.850346157 92.0
37.883768694 93.0
37.917191232 91.0
37.950613769 96.0
37.984036306 86.0
38.017458843 79.0
38.050881381 88.0
38.084303918 76.0
38.117726455 79.0
38.151148992 89.0
38.184571530 88.0
38.217994067 104.0
38.251416604 103.0
38.284839141 102.0
38.318261679 89.0
38.351684216 73.0
38.385106753 105.0
38.418529290 99.0
38.451951828 91.0
38.485374365 94.0
38.518796902 111.0
38.552219439 96.0
38.585641977 82.0
38.619064514 92.0
38.652487051 82.0
38.685909588 75.0
38.719332125 102.0
38.752754663 113.0
38.786177200 120.0
38.819599737 119.0
38.853022274 80.0
38.886444812 97.0
38.919867349 118.0
38.953289886 130.0
38.986712423 130.0
39.020134961 103.0
39.053557498 128.0
39.086980035 110.0
39.120402572 122.0
39.153825110 145.0
39.187247647 127.0
39.220670184 111.0
39.254092721 108.0
39.287515259 103.0
39.320937796 141.0
39.354360333 109.0
39.387782870 121.0
39.421205408 109.0
39.454627945 134.0
39.488050482 122.0
39.521473019 133.0
39.554895557 132.0
39.588318094 129.0
39.621740631 142.0
39.655163168 137.0
39.688585706 147.0
39.722008243 153.0
39.755430780 123.0
39.788853317 135.0
39.822275854 131.0
39.855698392 142.0
39.889120929 136.0
39.922543466 138.0
39.955966003 129.0
39.989388541 121.0
40.022811078 121.0
40.056233615 123.0
40.089656152 104.0
40.123078690 95.0
40.156501227 119.0
40.189923764 115.0
40.223346301 114.0
40.256768839 120.0
40.290191376 101.0
40.323613913 129.0
40.357036450 113.0
40.390458988 147.0
40.423881525 114.0
40.457304062 119.0
40.490726599 143.0
40.524149137 118.0
40.557571674 128.0
40.590994211 116.0
40.624416748 128.0
40.657839286 116.0
40.691261823 124.0
40.724684360 105.0
40.758106897 105.0
40.791529434 105.0
40.824951972 121.0
40.858374509 81.0
40.891797046 104.0
40.925219583 94.0
40.958642121 101.0
40.992064658 114.0
41.025487195 122.0
41.058909732 119.0
41.092332270 121.0
41.125754807 115.0
41.159177344 129.0
41.192599881 146.0
41.226022419 130.0
41.259444956 150.0
41.292867493 138.0
41.326290030 149.0
41.359712568 169.0
41.393135105 152.0
41.426557642 146.0
41.459980179 171.0
41.493402717 162.0
41.526825254 136.0
41.560247791 164.0
41.593670328 157.0
41.627092866 146.0
41.660515403 142.0
41.693937940 145.0
41.727360477 162.0
41.760783015 162.0
41.794205552 184.0
41.827628089 167.0
41.861050626 209.0
41.894473163 259.0
41.927895701 296.0
41.961318238 302.0
41.994740775 346.0
42.028163312 414.0
42.061585850 451.0
42.095008387 487.0
42.128430924 578.0
42.161853461 605.0
42.195275999 681.0
42.228698536 796.0
42.262121073 817.0
42.295543610 912.0
42.328966148 910.0
42.362388685 1011.0
42.395811222 1051.0
42.429233759 1132.0
42.462656297 1114.0
42.496078834 1116.0
42.529501371 1136.0
42.562923908 1157.0
42.596346446 1127.0
42.629768983 1138.0
42.663191520 1165.0
42.696614057 1163.0
42.730036595 1084.0
42.763459132 1103.0
42.796881669 1047.0
42.830304206 949.0
42.863726743 904.0
42.897149281 922.0
42.930571818 762.0
42.963994355 714.0
42.997416892 685.0
43.030839430 667.0
43.064261967 575.0
43.097684504 461.0
43.131107041 465.0
43.164529579 419.0
43.197952116 363.0
43.231374653 306.0
43.264797190 287.0
43.298219728 235.0
43.331642265 219.0
43.365064802 213.0
43.398487339 176.0
43.431909877 144.0
43.465332414 136.0
43.498754951 121.0
43.532177488 114.0
43.565600026 122.0
43.599022563 99.0
43.632445100 92.0
43.665867637 89.0
43.699290175 72.0
43.732712712 66.0
43.766135249 57.0
43.799557786 71.0
43.832980324 67.0
43.866402861 54.0
43.899825398 61.0
43.933247935 63.0
43.966670472 80.0
44.000093010 49.0
44.033515547 53.0
44.066938084 47.0
44.100360621 44.0
44.133783159 51.0
44.167205696 43.0
44.200628233 47.0
44.234050770 47.0
44.267473308 30.0
44.300895845 49.0
44.334318382 43.0
44.367740919 26.0
44.401163457 29.0
44.434585994 32.0
44.468008531 26.0
44.501431068 24.0
44.534853606 36.0
44.568276143 35.0
44.601698680 33.0
44.635121217 24.0
44.668543755 30.0
44.701966292 16.0
44.735388829 27.0
44.768811366 26.0
44.802233904 32.0
44.835656441 33.0
44.869078978 24.0
44.902501515 22.0
44.935924052 24.0
44.969346590 39.0
45.002769127 34.0
45.036191664 32.0
45.069614201 27.0
45.103036739 21.0
45.136459276 25.0
45.169881813 18.0
45.203304350 25.0
45.236726888 22.0
45.270149425 20.0
45.303571962 20.0
45.336994499 21.0
45.370417037 18.0
45.403839574 16.0
45.437262111 12.0
45.470684648 17.0
45.504107186 15.0
45.537529723 20.0
45.570952260 17.0
45.604374797 18.0
45.637797335 23.0
45.671219872 19.0
45.704642409 18.0
45.738064946 27.0
45.771487484 24.0
45.804910021 25.0
45.838332558 16.0
45.871755095 25.0
45.905177633 17.0
45.938600170 22.0
45.972022707 12.0
46.005445244 22.0
46.038867781 12.0
46.072290319 15.0
46.105712856 17.0
46.139135393 10.0
46.172557930 13.0
46.205980468 19.0
46.239403005 17.0
46.272825542 18.0
46.306248079 20.0
46.339670617 13.0
46.373093154 18.0
46.406515691 15.0
46.439938228 15.0
46.473360766 8.0
46.506783303 21.0
46.540205840 8.0
46.573628377 17.0
46.607050915 12.0
46.640473452 13.0
46.673895989 17.0
46.707318526 11.0
46.740741064 19.0
46.774163601 13.0
46.807586138 20.0
46.841008675 10.0
46.874431213 8.0
46.907853750 10.0
46.941276287 16.0
46.974698824 8.0
47.008121362 21.0
47.041543899 12.0
47.074966436 18.0
47.108388973 15.0
47.141811510 11.0
47.175234048 17.0
47.208656585 17.0
47.242079122 16.0
47.275501659 7.0
47.308924197 12.0
47.342346734 12.0
47.375769271 12.0
47.409191808 15.0
47.442614346 8.0
47.476036883 10.0
47.509459420 12.0
47.542881957 9.0
47.576304495 8.0
47.609727032 10.0
47.643149569 8.0
47.676572106 19.0
47.709994644 18.0
47.743417181 16.0
47.776839718 10.0
47.810262255 11.0
47.843684793 19.0
47.877107330 15.0
47.910529867 17.0
47.943952404 8.0
47.977374942 13.0
48.010797479 8.0
48.044220016 13.0
48.077642553 12.0
48.111065090 13.0
48.144487628 11.0
48.177910165 9.0
48.211332702 16.0
48.244755239 11.0
48.278177777 15.0
48.311600314 9.0
48.345022851 10.0
48.378445388 17.0
48.411867926 8.0
48.445290463 6.0
48.478713000 15.0
48.512135537 20.0
48.545558075 5.0
48.578980612 15.0
48.612403149 19.0
48.645825686 17.0
48.679248224 13.0
48.712670761 11.0
48.746093298 7.0
48.779515835 6.0
48.812938373 18.0
48.846360910 5.0
48.879783447 9.0
48.913205984 10.0
48.946628522 12.0
48.980051059 10.0
49.013473596 15.0
49.046896133 11.0
49.080318671 16.0
49.113741208 11.0
49.147163745 13.0
49.180586282 12.0
49.214008819 13.0
49.247431357 7.0
49.280853894 13.0
49.314276431 10.0
49.347698968 20.0
49.381121506 21.0
49.414544043 13.0
49.447966580 17.0
49.481389117 10.0
49.514811655 6.0
49.548234192 7.0
49.581656729 15.0
49.615079266 12.0
49.648501804 7.0
49.681924341 12.0
49.715346878 11.0
49.748769415 10.0
49.782191953 8.0
49.815614490 8.0
49.849037027 9.0
49.882459564 11.0
49.915882102 16.0
49.949304639 15.0
49.982727176 13.0
50.016149713 10.0
50.049572251 15.0
50.082994788 15.0
50.116417325 6.0
50.149839862 13.0
50.183262399 8.0
50.216684937 10.0
50.250107474 13.0
50.283530011 11.0
50.316952548 8.0
50.350375086 10.0
50.383797623 12.0
50.417220160 7.0
50.450642697 11.0
50.484065235 9.0
50.517487772 6.0
50.550910309 10.0
50.584332846 12.0
50.617755384 8.0
50.651177921 5.0
50.684600458 7.0
50.718022995 10.0
50.751445533 5.0
50.784868070 7.0
50.818290607 10.0
50.851713144 13.0
50.885135682 15.0
50.918558219 8.0
50.951980756 10.0
50.985403293 11.0
51.018825831 17.0
51.052248368 9.0
51.085670905 15.0
51.119093442 11.0
51.152515980 8.0
51.185938517 21.0
51.219361054 11.0
51.252783591 11.0
51.286206128 9.0
51.319628666 20.0
51.353051203 5.0
51.386473740 6.0
51.419896277 10.0
51.453318815 9.0
51.486741352 13.0
51.520163889 7.0
51.553586426 11.0
51.587008964 12.0
51.620431501 9.0
51.653854038 7.0
51.687276575 9.0
51.720699113 10.0
51.754121650 12.0
51.787544187 11.0
51.820966724 13.0
51.854389262 17.0
51.887811799 8.0
51.921234336 9.0
51.954656873 6.0
51.988079411 8.0
52.021501948 7.0
52.054924485 8.0
52.088347022 12.0
52.121769560 6.0
52.155192097 10.0
52.188614634 13.0
52.222037171 11.0
52.255459708 11.0
52.288882246 11.0
52.322304783 10.0
52.355727320 9.0
52.389149857 16.0
52.422572395 10.0
52.455994932 12.0
52.489417469 8.0
52.522840006 13.0
52.556262544 4.0
52.589685081 11.0
52.623107618 11.0
52.656530155 18.0
52.689952693 16.0
52.723375230 6.0
52.756797767 4.0
52.790220304 12.0
52.823642842 15.0
52.857065379 13.0
52.890487916 11.0
52.923910453 11.0
52.957332991 8.0
52.990755528 12.0
53.024178065 4.0
53.057600602 17.0
53.091023140 7.0
53.124445677 9.0
53.157868214 17.0
53.191290751 13.0
53.224713289 5.0
53.258135826 13.0
53.291558363 8.0
53.324980900 7.0
53.358403437 4.0
53.391825975 7.0
53.425248512 8.0
53.458671049 11.0
53.492093586 6.0
53.525516124 3.0
53.558938661 11.0
53.592361198 15.0
53.625783735 12.0
53.659206273 12.0
53.692628810 15.0
53.726051347 13.0
53.759473884 10.0
53.792896422 3.0
53.826318959 5.0
53.859741496 13.0
53.893164033 7.0
53.926586571 10.0
53.960009108 9.0
53.993431645 10.0
54.026854182 10.0
54.060276720 5.0
54.093699257 8.0
54.127121794 5.0
54.160544331 5.0
54.193966869 12.0
54.227389406 9.0
54.260811943 7.0
54.294234480 13.0
54.327657017 12.0
54.361079555 4.0
54.394502092 5.0
54.427924629 9.0
54.461347166 11.0
54.494769704 10.0
54.528192241 16.0
54.561614778 9.0
54.595037315 12.0
54.628459853 13.0
54.661882390 8.0
54.695304927 5.0
54.728727464 10.0
54.762150002 8.0
54.795572539 8.0
54.828995076 5.0
54.862417613 8.0
54.895840151 12.0
54.929262688 13.0
54.962685225 10.0
54.996107762 7.0
55.029530300 9.0
55.062952837 8.0
55.096375374 15.0
55.129797911 16.0
55.163220449 18.0
55.196642986 9.0
55.230065523 6.0
55.263488060 12.0
55.296910598 6.0
55.330333135 9.0
55.363755672 7.0
55.397178209 11.0
55.430600746 10.0
55.464023284 9.0
55.497445821 8.0
55.530868358 9.0
55.564290895 11.0
55.597713433 8.0
55.631135970 13.0
55.664558507 9.0
55.697981044 15.0
55.731403582 6.0
55.764826119 5.0
55.798248656 7.0
55.831671193 7.0
55.865093731 7.0
55.898516268 9.0
55.931938805 10.0
55.965361342 6.0
55.998783880 12.0
56.032206417 6.0
56.065628954 11.0
56.099051491 11.0
56.132474029 15.0
56.165896566 8.0
56.199319103 4.0
56.232741640 6.0
56.266164178 15.0
56.299586715 8.0
56.333009252 6.0
56.366431789 9.0
56.399854326 8.0
56.433276864 8.0
56.466699401 11.0
56.500121938 5.0
56.533544475 6.0
56.566967013 4.0
56.600389550 6.0
56.633812087 8.0
56.667234624 5.0
56.700657162 5.0
56.734079699 10.0
56.767502236 9.0
56.800924773 7.0
56.834347311 6.0
56.867769848 10.0
56.901192385 8.0
56.934614922 9.0
56.968037460 11.0
57.001459997 12.0
57.034882534 9.0
57.068305071 6.0
57.101727609 11.0
57.135150146 10.0
57.168572683 8.0
57.201995220 12.0
57.235417758 8.0
57.268840295 6.0
57.302262832 9.0
57.335685369 13.0
57.369107907 9.0
57.402530444 7.0
57.435952981 8.0
57.469375518 7.0
57.502798055 4.0
57.536220593 7.0
57.569643130 12.0
57.603065667 15.0
57.636488204 11.0
57.669910742 7.0
57.703333279 11.0
57.736755816 11.0
57.770178353 11.0
57.803600891 8.0
57.837023428 11.0
57.870445965 9.0
57.903868502 7.0
57.937291040 10.0
57.970713577 12.0
58.004136114 15.0
58.037558651 11.0
58.070981189 17.0
58.104403726 10.0
58.137826263 7.0
58.171248800 11.0
58.204671338 10.0
58.238093875 13.0
58.271516412 11.0
58.304938949 10.0
58.338361487 8.0
58.371784024 9.0
58.405206561 11.0
58.438629098 8.0
58.472051635 12.0
58.505474173 12.0
58.538896710 7.0
58.572319247 7.0
58.605741784 9.0
58.639164322 16.0
58.672586859 6.0
58.706009396 8.0
58.739431933 9.0
58.772854471 16.0
58.806277008 7.0
58.839699545 10.0
58.873122082 5.0
58.906544620 9.0
58.939967157 10.0
58.973389694 8.0
59.006812231 6.0
59.040234769 11.0
59.073657306 5.0
59.107079843 6.0
59.140502380 7.0
59.173924918 9.0
59.207347455 12.0
59.240769992 4.0
59.274192529 10.0
59.307615067 6.0
59.341037604 8.0
59.374460141 7.0
59.407882678 11.0
59.441305216 12.0
59.474727753 9.0
59.508150290 15.0
59.541572827 9.0
59.574995364 9.0
59.608417902 15.0
59.641840439 10.0
59.675262976 13.0
59.708685513 11.0
59.742108051 13.0
59.775530588 10.0
59.808953125 11.0
59.842375662 12.0
59.875798200 6.0
59.909220737 11.0
59.942643274 10.0
59.976065811 8.0
60.009488349 12.0
60.042910886 4.0
60.076333423 17.0
60.109755960 7.0
60.143178498 11.0
60.176601035 13.0
60.210023572 16.0
60.243446109 9.0
60.276868647 8.0
60.310291184 15.0
60.343713721 8.0
60.377136258 10.0
60.410558796 10.0
60.443981333 12.0
60.477403870 12.0
60.510826407 12.0
60.544248944 15.0
60.577671482 8.0
60.611094019 15.0
60.644516556 11.0
60.677939093 13.0
60.711361631 18.0
60.744784168 10.0
60.778206705 9.0
60.811629242 10.0
60.845051780 12.0
60.878474317 17.0
60.911896854 5.0
60.945319391 13.0
60.978741929 13.0
61.012164466 17.0
61.045587003 11.0
61.079009540 12.0
61.112432078 10.0
61.145854615 5.0
61.179277152 17.0
61.212699689 12.0
61.246122227 9.0
61.279544764 16.0
61.312967301 8.0
61.346389838 13.0
61.379812376 13.0
61.413234913 10.0
61.446657450 8.0
61.480079987 16.0
61.513502525 13.0
61.546925062 16.0
61.580347599 17.0
61.613770136 11.0
61.647192673 20.0
61.680615211 11.0
61.714037748 5.0
61.747460285 13.0
61.780882822 19.0
61.814305360 17.0
61.847727897 12.0
61.881150434 17.0
61.914572971 19.0
61.947995509 17.0
61.981418046 21.0
62.014840583 16.0
62.048263120 21.0
62.081685658 5.0
62.115108195 13.0
62.148530732 8.0
62.181953269 11.0
62.215375807 12.0
62.248798344 11.0
62.282220881 12.0
62.315643418 17.0
62.349065956 13.0
62.382488493 8.0
62.415911030 10.0
62.449333567 7.0
62.482756105 18.0
62.516178642 8.0
62.549601179 13.0
62.583023716 19.0
62.616446253 16.0
62.649868791 11.0
62.683291328 10.0
62.716713865 12.0
62.750136402 7.0
62.783558940 8.0
62.816981477 12.0
62.850404014 11.0
62.883826551 11.0
62.917249089 13.0
62.950671626 16.0
62.984094163 13.0
63.017516700 7.0
63.050939238 9.0
63.084361775 11.0
63.117784312 13.0
63.151206849 10.0
63.184629387 10.0
63.218051924 21.0
63.251474461 11.0
63.284896998 7.0
63.318319536 8.0
63.351742073 17.0
63.385164610 18.0
63.418587147 7.0
63.452009685 15.0
63.485432222 10.0
63.518854759 11.0
63.552277296 17.0
63.585699834 21.0
63.619122371 17.0
63.652544908 18.0
63.685967445 18.0
63.719389982 7.0
63.752812520 9.0
63.786235057 19.0
63.819657594 9.0
63.853080131 9.0
63.886502669 13.0
63.919925206 15.0
63.953347743 7.0
63.986770280 21.0
64.020192818 23.0
64.053615355 11.0
64.087037892 10.0
64.120460429 20.0
64.153882967 15.0
64.187305504 15.0
64.220728041 16.0
64.254150578 8.0
64.287573116 10.0
64.320995653 20.0
64.354418190 13.0
64.387840727 10.0
64.421263265 18.0
64.454685802 12.0
64.488108339 7.0
64.521530876 17.0
64.554953414 19.0
64.588375951 10.0
64.621798488 15.0
64.655221025 15.0
64.688643562 23.0
64.722066100 18.0
64.755488637 19.0
64.788911174 17.0
64.822333711 20.0
64.855756249 19.0
64.889178786 12.0
64.922601323 19.0
64.956023860 17.0
64.989446398 8.0
65.022868935 23.0
65.056291472 15.0
65.089714009 24.0
65.123136547 20.0
65.156559084 18.0
65.189981621 17.0
65.223404158 23.0
65.256826696 20.0
65.290249233 16.0
65.323671770 15.0
65.357094307 20.0
65.390516845 21.0
65.423939382 25.0
65.457361919 17.0
65.490784456 20.0
65.524206994 24.0
65.557629531 26.0
65.591052068 13.0
65.624474605 19.0
65.657897143 18.0
65.691319680 16.0
65.724742217 21.0
65.758164754 20.0
65.791587291 17.0
65.825009829 23.0
65.858432366 16.0
65.891854903 22.0
65.925277440 18.0
65.958699978 21.0
65.992122515 23.0
66.025545052 26.0
66.058967589 38.0
66.092390127 19.0
66.125812664 29.0
66.159235201 20.0
66.192657738 19.0
66.226080276 33.0
66.259502813 26.0
66.292925350 20.0
66.326347887 27.0
66.359770425 19.0
66.393192962 38.0
66.426615499 29.0
66.460038036 26.0
66.493460574 34.0
66.526883111 36.0
66.560305648 54.0
66.593728185 35.0
66.627150723 39.0
66.660573260 32.0
66.693995797 46.0
66.727418334 34.0
66.760840871 47.0
66.794263409 29.0
66.827685946 47.0
66.861108483 40.0
66.894531020 33.0
66.927953558 37.0
66.961376095 49.0
66.994798632 29.0
67.028221169 47.0
67.061643707 53.0
67.095066244 36.0
67.128488781 41.0
67.161911318 59.0
67.195333856 54.0
67.228756393 46.0
67.262178930 46.0
67.295601467 45.0
67.329024005 57.0
67.362446542 44.0
67.395869079 48.0
67.429291616 51.0
67.462714154 45.0
67.496136691 63.0
67.529559228 46.0
67.562981765 46.0
67.596404303 58.0
67.629826840 65.0
67.663249377 49.0
67.696671914 76.0
67.730094452 58.0
67.763516989 57.0
67.796939526 55.0
67.830362063 50.0
67.863784600 59.0
67.897207138 68.0
67.930629675 57.0
67.964052212 74.0
67.997474749 67.0
68.030897287 75.0
68.064319824 63.0
68.097742361 74.0
68.131164898 79.0
68.164587436 82.0
68.198009973 86.0
68.231432510 72.0
68.264855047 95.0
68.298277585 78.0
68.331700122 93.0
68.365122659 102.0
68.398545196 101.0
68.431967734 118.0
68.465390271 121.0
68.498812808 107.0
68.532235345 137.0
68.565657883 131.0
68.599080420 150.0
68.632502957 174.0
68.665925494 172.0
68.699348032 217.0
68.732770569 199.0
68.766193106 249.0
68.799615643 306.0
68.833038180 389.0
68.866460718 387.0
68.899883255 430.0
68.933305792 533.0
68.966728329 721.0
69.000150867 1688.0
69.033573404 3294.0
69.066995941 4280.0
69.100418478 5216.0
69.133841016 6592.0
69.167263553 16416.0
69.200686090 38814.0
69.234108627 11791.0
69.267531165 4774.0
69.300953702 3699.0
69.334376239 4347.0
69.367798776 10941.0
69.401221314 18805.0
69.434643851 5312.0
69.468066388 1641.0
69.501488925 890.0
69.534911463 592.0
69.568334000 479.0
69.601756537 419.0
69.635179074 339.0
69.668601612 282.0
69.702024149 254.0
69.735446686 226.0
69.768869223 252.0
69.802291761 184.0
69.835714298 167.0
69.869136835 166.0
69.902559372 150.0
69.935981909 132.0
69.969404447 142.0
70.002826984 152.0
70.036249521 124.0
70.069672058 108.0
70.103094596 124.0
70.136517133 118.0
70.169939670 120.0
70.203362207 115.0
70.236784745 109.0
70.270207282 116.0
70.303629819 91.0
70.337052356 113.0
70.370474894 103.0
70.403897431 75.0
70.437319968 99.0
70.470742505 80.0
70.504165043 104.0
70.537587580 80.0
70.571010117 80.0
70.604432654 96.0
70.637855192 86.0
70.671277729 67.0
70.704700266 81.0
70.738122803 76.0
70.771545341 57.0
70.804967878 67.0
70.838390415 74.0
70.871812952 66.0
70.905235489 64.0
70.938658027 69.0
70.972080564 78.0
71.005503101 59.0
71.038925638 60.0
71.072348176 55.0
71.105770713 59.0
71.139193250 62.0
71.172615787 59.0
71.206038325 64.0
71.239460862 65.0
71.272883399 58.0
71.306305936 64.0
71.339728474 60.0
71.373151011 69.0
71.406573548 50.0
71.439996085 38.0
71.473418623 40.0
71.506841160 52.0
71.540263697 51.0
71.573686234 49.0
71.607108772 39.0
71.640531309 52.0
71.673953846 45.0
71.707376383 49.0
71.740798921 45.0
71.774221458 46.0
71.807643995 44.0
71.841066532 50.0
71.874489070 61.0
71.907911607 41.0
71.941334144 48.0
71.974756681 37.0
72.008179218 38.0
72.041601756 33.0
72.075024293 36.0
72.108446830 45.0
72.141869367 43.0
72.175291905 41.0
72.208714442 40.0
72.242136979 37.0
72.275559516 33.0
72.308982054 36.0
72.342404591 19.0
72.375827128 33.0
72.409249665 32.0
72.442672203 33.0
72.476094740 36.0
72.509517277 41.0
72.542939814 35.0
72.576362352 36.0
72.609784889 30.0
72.643207426 20.0
72.676629963 33.0
72.710052501 22.0
72.743475038 20.0
72.776897575 32.0
72.810320112 32.0
72.843742650 27.0
72.877165187 21.0
72.910587724 27.0
72.944010261 25.0
72.977432798 19.0
73.010855336 19.0
73.044277873 17.0
73.077700410 27.0
73.111122947 25.0
73.144545485 22.0
73.177968022 13.0
73.211390559 30.0
73.244813096 24.0
73.278235634 21.0
73.311658171 22.0
73.345080708 30.0
73.378503245 20.0
73.411925783 26.0
73.445348320 18.0
73.478770857 16.0
73.512193394 16.0
73.545615932 23.0
73.579038469 11.0
73.612461006 18.0
73.645883543 33.0
73.679306081 12.0
73.712728618 20.0
73.746151155 17.0
73.779573692 15.0
73.812996230 20.0
73.846418767 26.0
73.879841304 19.0
73.913263841 19.0
73.946686379 23.0
73.980108916 19.0
74.013531453 17.0
74.046953990 19.0
74.080376527 26.0
74.113799065 24.0
74.147221602 17.0
74.180644139 20.0
74.214066676 18.0
74.247489214 20.0
74.280911751 21.0
74.314334288 20.0
74.347756825 17.0
74.381179363 22.0
74.414601900 23.0
74.448024437 12.0
74.481446974 17.0
74.514869512 16.0
74.548292049 11.0
74.581714586 18.0
74.615137123 11.0
74.648559661 26.0
74.681982198 24.0
74.715404735 19.0
74.748827272 12.0
74.782249810 11.0
74.815672347 18.0
74.849094884 23.0
74.882517421 12.0
74.915939959 18.0
74.949362496 7.0
74.982785033 20.0
75.016207570 11.0
75.049630108 21.0
75.083052645 17.0
75.116475182 11.0
75.149897719 15.0
75.183320256 19.0
75.216742794 21.0
75.250165331 10.0
75.283587868 16.0
75.317010405 21.0
75.350432943 9.0
75.383855480 11.0
75.417278017 15.0
75.450700554 18.0
75.484123092 17.0
75.517545629 13.0
75.550968166 20.0
75.584390703 10.0
75.617813241 10.0
75.651235778 15.0
75.684658315 15.0
75.718080852 12.0
75.751503390 5.0
75.784925927 11.0
75.818348464 15.0
75.851771001 18.0
75.885193539 11.0
75.918616076 9.0
75.952038613 13.0
75.985461150 17.0
76.018883688 16.0
76.052306225 10.0
76.085728762 18.0
76.119151299 16.0
76.152573836 15.0
76.185996374 22.0
76.219418911 11.0
76.252841448 13.0
76.286263985 19.0
76.319686523 11.0
76.353109060 11.0
76.386531597 18.0
76.419954134 8.0
76.453376672 17.0
76.486799209 21.0
76.520221746 13.0
76.553644283 17.0
76.587066821 20.0
76.620489358 19.0
76.653911895 10.0
76.687334432 17.0
76.720756970 15.0
76.754179507 16.0
76.787602044 23.0
76.821024581 15.0
76.854447119 16.0
76.887869656 10.0
76.921292193 24.0
76.954714730 18.0
76.988137268 12.0
77.021559805 27.0
77.054982342 15.0
77.088404879 18.0
77.121827417 26.0
77.155249954 23.0
77.188672491 17.0
77.222095028 19.0
77.255517565 25.0
77.288940103 23.0
77.322362640 31.0
77.355785177 31.0
77.389207714 29.0
77.422630252 19.0
77.456052789 45.0
77.489475326 44.0
77.522897863 34.0
77.556320401 37.0
77.589742938 35.0
77.623165475 31.0
77.656588012 32.0
77.690010550 40.0
77.723433087 43.0
77.756855624 38.0
77.790278161 39.0
77.823700699 50.0
77.857123236 46.0
77.890545773 43.0
77.923968310 45.0
77.957390848 43.0
77.990813385 53.0
78.024235922 26.0
78.057658459 52.0
78.091080997 40.0
78.124503534 34.0
78.157926071 41.0
78.191348608 37.0
78.224771145 33.0
78.258193683 36.0
78.291616220 33.0
78.325038757 21.0
78.358461294 38.0
78.391883832 36.0
78.425306369 27.0
78.458728906 31.0
78.492151443 25.0
78.525573981 32.0
78.558996518 27.0
78.592419055 30.0
78.625841592 35.0
78.659264130 22.0
78.692686667 19.0
78.726109204 24.0
78.759531741 20.0
78.792954279 34.0
78.826376816 19.0
78.859799353 17.0
78.893221890 18.0
78.926644428 6.0
78.960066965 19.0
78.993489502 19.0
79.026912039 23.0
79.060334577 12.0
79.093757114 10.0
79.127179651 18.0
79.160602188 16.0
79.194024726 10.0
79.227447263 13.0
79.260869800 9.0
79.294292337 21.0
79.327714874 9.0
79.361137412 19.0
79.394559949 20.0
79.427982486 10.0
79.461405023 13.0
79.494827561 19.0
79.528250098 15.0
79.561672635 9.0
79.595095172 4.0
79.628517710 12.0
79.661940247 9.0
79.695362784 6.0
79.728785321 15.0
79.762207859 9.0
79.795630396 9.0
79.829052933 5.0
79.862475470 9.0
79.895898008 5.0
79.929320545 8.0
79.962743082 12.0
79.996165619 8.0
80.029588157 6.0
80.063010694 5.0
80.096433231 8.0
80.129855768 13.0
80.163278306 12.0
80.196700843 17.0
80.230123380 10.0
80.263545917 12.0
80.296968454 11.0
80.330390992 12.0
80.363813529 8.0
80.397236066 4.0
80.430658603 8.0
80.464081141 13.0
80.497503678 8.0
80.530926215 9.0
80.564348752 4.0
80.597771290 11.0
80.631193827 4.0
80.664616364 5.0
80.698038901 3.0
80.731461439 8.0
80.764883976 10.0
80.798306513 7.0
80.831729050 3.0
80.865151588 3.0
80.898574125 8.0
80.931996662 12.0
80.965419199 8.0
80.998841737 5.0
81.032264274 6.0
81.065686811 7.0
81.099109348 7.0
81.132531886 7.0
81.165954423 6.0
81.199376960 11.0
81.232799497 9.0
81.266222035 5.0
81.299644572 11.0
81.333067109 11.0
81.366489646 4.0
81.399912183 7.0
81.433334721 12.0
81.466757258 7.0
81.500179795 8.0
81.533602332 15.0
81.567024870 4.0
81.600447407 6.0
81.633869944 9.0
81.667292481 4.0
81.700715019 9.0
81.734137556 8.0
81.767560093 8.0
81.800982630 6.0
81.834405168 5.0
81.867827705 10.0
81.901250242 7.0
81.934672779 8.0
81.968095317 9.0
82.001517854 8.0
82.034940391 13.0
82.068362928 8.0
82.101785466 10.0
82.135208003 7.0
82.168630540 7.0
82.202053077 8.0
82.235475615 6.0
82.268898152 8.0
82.302320689 5.0
82.335743226 10.0
82.369165763 6.0
82.402588301 5.0
82.436010838 9.0
82.469433375 4.0
82.502855912 8.0
82.536278450 7.0
82.569700987 4.0
82.603123524 5.0
82.636546061 4.0
82.669968599 5.0
82.703391136 12.0
82.736813673 7.0
82.770236210 9.0
82.803658748 8.0
82.837081285 4.0
82.870503822 10.0
82.903926359 11.0
82.937348897 3.0
82.970771434 6.0
83.004193971 8.0
83.037616508 6.0
83.071039046 4.0
83.104461583 17.0
83.137884120 6.0
83.171306657 9.0
83.204729195 9.0
83.238151732 10.0
83.271574269 10.0
83.304996806 9.0
83.338419344 7.0
83.371841881 9.0
83.405264418 11.0
83.438686955 9.0
83.472109492 9.0
83.505532030 5.0
83.538954567 7.0
83.572377104 8.0
83.605799641 4.0
83.639222179 7.0
83.672644716 10.0
83.706067253 17.0
83.739489790 5.0
83.772912328 12.0
83.806334865 9.0
83.839757402 12.0
83.873179939 8.0
83.906602477 12.0
83.940025014 7.0
83.973447551 11.0
84.006870088 15.0
84.040292626 7.0
84.073715163 12.0
84.107137700 12.0
84.140560237 8.0
84.173982775 12.0
84.207405312 5.0
84.240827849 10.0
84.274250386 8.0
84.307672924 8.0
84.341095461 17.0
84.374517998 13.0
84.407940535 6.0
84.441363072 6.0
84.474785610 4.0
84.508208147 7.0
84.541630684 10.0
84.575053221 5.0
84.608475759 10.0
84.641898296 10.0
84.675320833 7.0
84.708743370 9.0
84.742165908 7.0
84.775588445 8.0
84.809010982 7.0
84.842433519 6.0
84.875856057 9.0
84.909278594 7.0
84.942701131 7.0
84.976123668 9.0
85.009546206 7.0
85.042968743 8.0
85.076391280 12.0
85.109813817 5.0
85.143236355 8.0
85.176658892 8.0
85.210081429 13.0
85.243503966 11.0
85.276926504 4.0
85.310349041 8.0
85.343771578 9.0
85.377194115 11.0
85.410616653 9.0
85.444039190 13.0
85.477461727 12.0
85.510884264 9.0
85.544306801 9.0
85.577729339 5.0
85.611151876 9.0
85.644574413 7.0
85.677996950 8.0
85.711419488 6.0
85.744842025 10.0
85.778264562 8.0
85.811687099 10.0
85.845109637 10.0
85.878532174 6.0
85.911954711 9.0
85.945377248 6.0
85.978799786 12.0
86.012222323 8.0
86.045644860 7.0
86.079067397 7.0
86.112489935 11.0
86.145912472 7.0
86.179335009 6.0
86.212757546 9.0
86.246180084 7.0
86.279602621 11.0
86.313025158 7.0
86.346447695 13.0
86.379870233 8.0
86.413292770 8.0
86.446715307 8.0
86.480137844 6.0
86.513560381 8.0
86.546982919 18.0
86.580405456 5.0
86.613827993 7.0
86.647250530 9.0
86.680673068 7.0
86.714095605 13.0
86.747518142 13.0
86.780940679 13.0
86.814363217 13.0
86.847785754 15.0
86.881208291 10.0
86.914630828 11.0
86.948053366 11.0
86.981475903 7.0
87.014898440 7.0
87.048320977 5.0
87.081743515 11.0
87.115166052 9.0
87.148588589 8.0
87.182011126 8.0
87.215433664 8.0
87.248856201 9.0
87.282278738 17.0
87.315701275 7.0
87.349123813 8.0
87.382546350 5.0
87.415968887 9.0
87.449391424 10.0
87.482813962 9.0
87.516236499 10.0
87.549659036 5.0
87.583081573 8.0
87.616504110 12.0
87.649926648 12.0
87.683349185 9.0
87.716771722 4.0
87.750194259 4.0
87.783616797 10.0
87.817039334 7.0
87.850461871 8.0
87.883884408 5.0
87.917306946 9.0
87.950729483 7.0
87.984152020 6.0
88.017574557 6.0
88.050997095 7.0
88.084419632 8.0
88.117842169 8.0
88.151264706 9.0
88.184687244 6.0
88.218109781 8.0
88.251532318 11.0
88.284954855 10.0
88.318377393 9.0
88.351799930 3.0
88.385222467 5.0
88.418645004 10.0
88.452067542 5.0
88.485490079 4.0
88.518912616 8.0
88.552335153 6.0
88.585757690 9.0
88.619180228 10.0
88.652602765 6.0
88.686025302 7.0
88.719447839 8.0
88.752870377 7.0
88.786292914 8.0
88.819715451 9.0
88.853137988 6.0
88.886560526 6.0
88.919983063 6.0
88.953405600 5.0
88.986828137 6.0
89.020250675 11.0
89.053673212 9.0
89.087095749 7.0
89.120518286 11.0
89.153940824 4.0
89.187363361 12.0
89.220785898 8.0
89.254208435 6.0
89.287630973 1.0
89.321053510 5.0
89.354476047 7.0
89.387898584 13.0
89.421321122 8.0
89.454743659 5.0
89.488166196 4.0
89.521588733 7.0
89.555011271 5.0
89.588433808 10.0
89.621856345 4.0
89.655278882 7.0
89.688701419 9.0
89.722123957 9.0
89.755546494 9.0
89.788969031 10.0
89.822391568 9.0
89.855814106 7.0
89.889236643 10.0
89.922659180 8.0
89.956081717 9.0
89.989504255 6.0
90.022926792 6.0
90.056349329 7.0
90.089771866 11.0
90.123194404 10.0
90.156616941 7.0
90.190039478 8.0
90.223462015 7.0
90.256884553 18.0
90.290307090 7.0
90.323729627 6.0
90.357152164 4.0
90.390574702 3.0
90.423997239 9.0
90.457419776 11.0
90.490842313 8.0
90.524264851 8.0
90.557687388 4.0
90.591109925 12.0
90.624532462 13.0
90.657954999 10.0
90.691377537 12.0
90.724800074 5.0
90.758222611 15.0
90.791645148 11.0
90.825067686 4.0
90.858490223 6.0
90.891912760 5.0
90.925335297 7.0
90.958757835 6.0
90.992180372 8.0
91.025602909 16.0
91.059025446 10.0
91.092447984 10.0
91.125870521 9.0
91.159293058 12.0
91.192715595 10.0
91.226138133 8.0
91.259560670 6.0
91.292983207 3.0
91.326405744 7.0
91.359828282 13.0
91.393250819 6.0
91.426673356 6.0
91.460095893 9.0
91.493518431 8.0
91.526940968 7.0
91.560363505 15.0
91.593786042 12.0
91.627208580 11.0
91.660631117 8.0
91.694053654 7.0
91.727476191 7.0
91.760898728 5.0
91.794321266 15.0
91.827743803 17.0
91.861166340 8.0
91.894588877 7.0
91.928011415 11.0
91.961433952 12.0
91.994856489 7.0
92.028279026 9.0
92.061701564 12.0
92.095124101 13.0
92.128546638 15.0
92.161969175 6.0
92.195391713 18.0
92.228814250 13.0
92.262236787 20.0
92.295659324 25.0
92.329081862 17.0
92.362504399 36.0
92.395926936 17.0
92.429349473 31.0
92.462772011 19.0
92.496194548 25.0
92.529617085 21.0
92.563039622 22.0
92.596462160 23.0
92.629884697 29.0
92.663307234 32.0
92.696729771 32.0
92.730152308 31.0
92.763574846 30.0
92.796997383 37.0
92.830419920 33.0
92.863842457 39.0
92.897264995 37.0
92.930687532 48.0
92.964110069 39.0
92.997532606 29.0
93.030955144 29.0
93.064377681 37.0
93.097800218 32.0
93.131222755 44.0
93.164645293 40.0
93.198067830 35.0
93.231490367 43.0
93.264912904 34.0
93.298335442 33.0
93.331757979 25.0
93.365180516 34.0
93.398603053 39.0
93.432025591 40.0
93.465448128 38.0
93.498870665 32.0
93.532293202 24.0
93.565715740 36.0
93.599138277 43.0
93.632560814 26.0
93.665983351 30.0
93.699405889 32.0
93.732828426 38.0
93.766250963 30.0
93.799673500 34.0
93.833096037 34.0
93.866518575 24.0
93.899941112 21.0
93.933363649 25.0
93.966786186 26.0
94.000208724 20.0
94.033631261 20.0
94.067053798 21.0
94.100476335 18.0
94.133898873 13.0
94.167321410 11.0
94.200743947 20.0
94.234166484 18.0
94.267589022 10.0
94.301011559 17.0
94.334434096 16.0
94.367856633 23.0
94.401279171 17.0
94.434701708 12.0
94.468124245 5.0
94.501546782 8.0
94.534969320 11.0
94.568391857 7.0
94.601814394 10.0
94.635236931 10.0
94.668659469 11.0
94.702082006 15.0
94.735504543 8.0
94.768927080 9.0
94.802349617 9.0
94.835772155 10.0
94.869194692 6.0
94.902617229 8.0
94.936039766 12.0
94.969462304 10.0
95.002884841 10.0
95.036307378 7.0
95.069729915 6.0
95.103152453 11.0
95.136574990 7.0
95.169997527 8.0
95.203420064 11.0
95.236842602 8.0
95.270265139 12.0
95.303687676 5.0
95.337110213 7.0
95.370532751 8.0
95.403955288 5.0
95.437377825 10.0
95.470800362 5.0
95.504222900 8.0
95.537645437 8.0
95.571067974 5.0
95.604490511 7.0
95.637913049 4.0
95.671335586 10.0
95.704758123 5.0
95.738180660 6.0
95.771603198 8.0
95.805025735 7.0
95.838448272 7.0
95.871870809 4.0
95.905293346 6.0
95.938715884 8.0
95.972138421 4.0
96.005560958 9.0
96.038983495 5.0
96.072406033 6.0
96.105828570 10.0
96.139251107 4.0
96.172673644 3.0
96.206096182 5.0
96.239518719 7.0
96.272941256 13.0
96.306363793 12.0
96.339786331 7.0
96.373208868 2.0
96.406631405 8.0
96.440053942 4.0
96.473476480 4.0
96.506899017 4.0
96.540321554 10.0
96.573744091 10.0
96.607166629 9.0
96.640589166 9.0
96.674011703 7.0
96.707434240 6.0
96.740856778 13.0
96.774279315 13.0
96.807701852 6.0
96.841124389 3.0
96.874546926 5.0
96.907969464 3.0
96.941392001 6.0
96.974814538 6.0
97.008237075 5.0
97.041659613 2.0
97.075082150 2.0
97.108504687 4.0
97.141927224 10.0
97.175349762 6.0
97.208772299 4.0
97.242194836 5.0
97.275617373 6.0
97.309039911 2.0
97.342462448 9.0
97.375884985 5.0
97.409307522 7.0
97.442730060 5.0
97.476152597 5.0
97.509575134 11.0
97.542997671 3.0
97.576420209 3.0
97.609842746 4.0
97.643265283 5.0
97.676687820 1.0
97.710110358 2.0
97.743532895 6.0
97.776955432 6.0
97.810377969 6.0
97.843800507 8.0
97.877223044 5.0
97.910645581 9.0
97.944068118 9.0
97.977490655 4.0
98.010913193 4.0
98.044335730 8.0
98.077758267 1.0
98.111180804 5.0
98.144603342 2.0
98.178025879 7.0
98.211448416 6.0
98.244870953 7.0
98.278293491 7.0
98.311716028 1.0
98.345138565 6.0
98.378561102 4.0
98.411983640 2.0
98.445406177 8.0
98.478828714 5.0
98.512251251 2.0
98.545673789 2.0
98.579096326 7.0
98.612518863 8.0
98.645941400 5.0
98.679363938 10.0
98.712786475 9.0
98.746209012 15.0
98.779631549 5.0
98.813054087 5.0
98.846476624 5.0
98.879899161 9.0
98.913321698 5.0
98.946744235 8.0
98.980166773 5.0
99.013589310 8.0
99.047011847 8.0
99.080434384 6.0
99.113856922 2.0
99.147279459 6.0
99.180701996 6.0
99.214124533 3.0
99.247547071 4.0
99.280969608 4.0
99.314392145 4.0
99.347814682 7.0
99.381237220 6.0
99.414659757 4.0
99.448082294 5.0
99.481504831 8.0
99.514927369 5.0
99.548349906 11.0
99.581772443 3.0
99.615194980 9.0
99.648617518 7.0
99.682040055 5.0
99.715462592 6.0
99.748885129 7.0
99.782307667 7.0
99.815730204 7.0
99.849152741 6.0
99.882575278 6.0
99.915997816 4.0
99.949420353 2.0
99.982842890 2.0
