20.002711270 85.0
20.036133807 109.0
20.069556344 83.0
20.102978882 69.0
20.136401419 83.0
20.169823956 69.0
20.203246493 85.0
20.236669031 74.0
20.270091568 79.0
20.303514105 68.0
20.336936642 79.0
20.370359180 67.0
20.403781717 86.0
20.437204254 75.0
20.470626791 78.0
20.504049329 72.0
20.537471866 86.0
20.570894403 87.0
20.604316940 75.0
20.637739478 86.0
20.671162015 83.0
20.704584552 87.0
20.738007089 68.0
20.771429627 59.0
20.804852164 68.0
20.838274701 80.0
20.871697238 80.0
20.905119776 60.0
20.938542313 82.0
20.971964850 80.0
21.005387387 85.0
21.038809925 79.0
21.072232462 73.0
21.105654999 61.0
21.139077536 71.0
21.172500073 75.0
21.205922611 87.0
21.239345148 83.0
21.272767685 63.0
21.306190222 61.0
21.339612760 69.0
21.373035297 86.0
21.406457834 78.0
21.439880371 73.0
21.473302909 66.0
21.506725446 54.0
21.540147983 80.0
21.573570520 67.0
21.606993058 74.0
21.640415595 79.0
21.673838132 76.0
21.707260669 89.0
21.740683207 57.0
21.774105744 59.0
21.807528281 54.0
21.840950818 75.0
21.874373356 59.0
21.907795893 76.0
21.941218430 62.0
21.974640967 60.0
22.008063505 62.0
22.041486042 66.0
22.074908579 78.0
22.108331116 57.0
22.141753653 61.0
22.175176191 66.0
22.208598728 66.0
22.242021265 67.0
22.275443802 60.0
22.308866340 66.0
22.342288877 60.0
22.375711414 87.0
22.409133951 71.0
22.442556489 78.0
22.475979026 58.0
22.509401563 68.0
22.542824100 66.0
22.576246638 68.0
22.609669175 65.0
22.643091712 65.0
22.676514249 54.0
22.709936787 68.0
22.743359324 61.0
22.776781861 59.0
22.810204398 75.0
22.843626936 64.0
22.877049473 61.0
22.910472010 55.0
22.943894547 63.0
22.977317085 64.0
23.010739622 63.0
23.044162159 55.0
23.077584696 71.0
23.111007234 61.0
23.144429771 68.0
23.177852308 63.0
23.211274845 67.0
23.244697382 62.0
23.278119920 62.0
23.311542457 64.0
23.344964994 50.0
23.378387531 49.0
23.411810069 49.0
23.445232606 63.0
23.478655143 66.0
23.512077680 67.0
23.545500218 53.0
23.578922755 50.0
23.612345292 83.0
23.645767829 65.0
23.679190367 48.0
23.712612904 62.0
23.746035441 52.0
23.779457978 71.0
23.812880516 55.0
23.846303053 58.0
23.879725590 46.0
23.913148127 64.0
23.946570665 54.0
23.979993202 47.0
24.013415739 73.0
24.046838276 62.0
24.080260814 58.0
24.113683351 51.0
24.147105888 65.0
24.180528425 67.0
24.213950962 48.0
24.247373500 69.0
24.280796037 66.0
24.314218574 83.0
24.347641111 79.0
24.381063649 61.0
24.414486186 52.0
24.447908723 39.0
24.481331260 47.0
24.514753798 52.0
24.548176335 59.0
24.581598872 59.0
24.615021409 74.0
24.648443947 47.0
24.681866484 58.0
24.715289021 43.0
24.748711558 59.0
24.782134096 41.0
24.815556633 51.0
24.848979170 51.0
24.882401707 51.0
24.915824245 54.0
24.949246782 54.0
24.982669319 50.0
25.016091856 61.0
25.049514394 63.0
25.082936931 54.0
25.116359468 62.0
25.149782005 59.0
25.183204543 59.0
25.216627080 55.0
25.250049617 50.0
25.283472154 62.0
25.316894691 76.0
25.350317229 57.0
25.383739766 63.0
25.417162303 59.0
25.450584840 60.0
25.484007378 62.0
25.517429915 51.0
25.550852452 50.0
25.584274989 62.0
25.617697527 59.0
25.651120064 51.0
25.684542601 54.0
25.717965138 64.0
25.751387676 57.0
25.784810213 62.0
25.818232750 54.0
25.851655287 68.0
25.885077825 46.0
25.918500362 63.0
25.951922899 61.0
25.985345436 52.0
26.018767974 43.0
26.052190511 59.0
26.085613048 51.0
26.119035585 51.0
26.152458123 52.0
26.185880660 61.0
26.219303197 50.0
26.252725734 39.0
26.286148271 52.0
26.319570809 47.0
26.352993346 48.0
26.386415883 62.0
26.419838420 54.0
26.453260958 47.0
26.486683495 51.0
26.520106032 45.0
26.553528569 47.0
26.586951107 52.0
26.620373644 55.0
26.653796181 61.0
26.687218718 34.0
26.720641256 39.0
26.754063793 68.0
26.787486330 63.0
26.820908867 60.0
26.854331405 52.0
26.887753942 43.0
26.921176479 49.0
26.954599016 39.0
26.988021554 51.0
27.021444091 39.0
27.054866628 57.0
27.088289165 50.0
27.121711703 40.0
27.155134240 59.0
27.188556777 43.0
27.221979314 43.0
27.255401852 60.0
27.288824389 51.0
27.322246926 38.0
27.355669463 61.0
27.389092000 43.0
27.422514538 51.0
27.455937075 45.0
27.489359612 60.0
27.522782149 59.0
27.556204687 51.0
27.589627224 54.0
27.623049761 60.0
27.656472298 59.0
27.689894836 49.0
27.723317373 50.0
27.756739910 59.0
27.790162447 40.0
27.823584985 52.0
27.857007522 46.0
27.890430059 66.0
27.923852596 58.0
27.957275134 57.0
27.990697671 58.0
28.024120208 65.0
28.057542745 44.0
28.090965283 44.0
28.124387820 55.0
28.157810357 53.0
28.191232894 60.0
28.224655432 43.0
28.258077969 44.0
28.291500506 45.0
28.324923043 43.0
28.358345580 59.0
28.391768118 60.0
28.425190655 57.0
28.458613192 50.0
28.492035729 46.0
28.525458267 51.0
28.558880804 59.0
28.592303341 61.0
28.625725878 59.0
28.659148416 62.0
28.692570953 60.0
28.725993490 61.0
28.759416027 49.0
28.792838565 49.0
28.826261102 54.0
28.859683639 59.0
28.893106176 41.0
28.926528714 66.0
28.959951251 59.0
28.993373788 55.0
29.026796325 58.0
29.060218863 61.0
29.093641400 66.0
29.127063937 50.0
29.160486474 53.0
29.193909012 51.0
29.227331549 46.0
29.260754086 45.0
29.294176623 43.0
29.327599161 44.0
29.361021698 55.0
29.394444235 48.0
29.427866772 58.0
29.461289309 48.0
29.494711847 43.0
29.528134384 52.0
29.561556921 50.0
29.594979458 41.0
29.628401996 51.0
29.661824533 72.0
29.695247070 55.0
29.728669607 55.0
29.762092145 51.0
29.795514682 59.0
29.828937219 53.0
29.862359756 38.0
29.895782294 59.0
29.929204831 55.0
29.962627368 61.0
29.996049905 40.0
30.029472443 51.0
30.062894980 47.0
30.096317517 59.0
30.129740054 57.0
30.163162592 54.0
30.196585129 45.0
30.230007666 55.0
30.263430203 50.0
30.296852741 59.0
30.330275278 50.0
30.363697815 57.0
30.397120352 53.0
30.430542889 65.0
30.463965427 48.0
30.497387964 73.0
30.530810501 54.0
30.564233038 63.0
30.597655576 68.0
30.631078113 60.0
30.664500650 51.0
30.697923187 54.0
30.731345725 64.0
30.764768262 54.0
30.798190799 73.0
30.831613336 63.0
30.865035874 66.0
30.898458411 60.0
30.931880948 57.0
30.965303485 52.0
30.998726023 72.0
31.032148560 66.0
31.065571097 77.0
31.098993634 63.0
31.132416172 63.0
31.165838709 75.0
31.199261246 66.0
31.232683783 53.0
31.266106321 76.0
31.299528858 63.0
31.332951395 53.0
31.366373932 80.0
31.399796470 57.0
31.433219007 77.0
31.466641544 77.0
31.500064081 80.0
31.533486618 74.0
31.566909156 72.0
31.600331693 69.0
31.633754230 62.0
31.667176767 76.0
31.700599305 90.0
31.734021842 72.0
31.767444379 73.0
31.800866916 74.0
31.834289454 81.0
31.867711991 96.0
31.901134528 73.0
31.934557065 76.0
31.967979603 99.0
32.001402140 96.0
32.034824677 90.0
32.068247214 99.0
32.101669752 87.0
32.135092289 97.0
32.168514826 108.0
32.201937363 102.0
32.235359901 82.0
32.268782438 91.0
32.302204975 88.0
32.335627512 91.0
32.369050050 107.0
32.402472587 101.0
32.435895124 121.0
32.469317661 114.0
32.502740198 125.0
32.536162736 128.0
32.569585273 106.0
32.603007810 106.0
32.636430347 96.0
32.669852885 127.0
32.703275422 106.0
32.736697959 107.0
32.770120496 101.0
32.803543034 107.0
32.836965571 119.0
32.870388108 110.0
32.903810645 125.0
32.937233183 121.0
32.970655720 115.0
33.004078257 178.0
33.037500794 310.0
33.070923332 144.0
33.104345869 177.0
33.137768406 152.0
33.171190943 109.0
33.204613481 143.0
33.238036018 119.0
33.271458555 120.0
33.304881092 152.0
33.338303630 130.0
33.371726167 132.0
33.405148704 111.0
33.438571241 115.0
33.471993779 113.0
33.505416316 108.0
33.538838853 118.0
33.572261390 110.0
33.605683927 121.0
33.639106465 144.0
33.672529002 118.0
33.705951539 110.0
33.739374076 104.0
33.772796614 107.0
33.806219151 131.0
33.839641688 113.0
33.873064225 109.0
33.906486763 117.0
33.939909300 117.0
33.973331837 117.0
34.006754374 109.0
34.040176912 105.0
34.073599449 129.0
34.107021986 113.0
34.140444523 91.0
34.173867061 106.0
34.207289598 107.0
34.240712135 81.0
34.274134672 106.0
34.307557210 97.0
34.340979747 94.0
34.374402284 108.0
34.407824821 82.0
34.441247359 91.0
34.474669896 90.0
34.508092433 87.0
34.541514970 96.0
34.574937507 104.0
34.608360045 94.0
34.641782582 87.0
34.675205119 99.0
34.708627656 88.0
34.742050194 106.0
34.775472731 72.0
34.808895268 78.0
34.842317805 86.0
34.875740343 82.0
34.909162880 82.0
34.942585417 97.0
34.976007954 86.0
35.009430492 107.0
35.042853029 95.0
35.076275566 93.0
35.109698103 90.0
35.143120641 102.0
35.176543178 97.0
35.209965715 68.0
35.243388252 90.0
35.276810790 93.0
35.310233327 101.0
35.343655864 93.0
35.377078401 103.0
35.410500939 106.0
35.443923476 97.0
35.477346013 102.0
35.510768550 88.0
35.544191088 94.0
35.577613625 94.0
35.611036162 94.0
35.644458699 74.0
35.677881236 102.0
35.711303774 93.0
35.744726311 102.0
35.778148848 97.0
35.811571385 81.0
35.844993923 108.0
35.878416460 110.0
35.911838997 133.0
35.945261534 125.0
35.978684072 138.0
36.012106609 145.0
36.045529146 147.0
36.078951683 180.0
36.112374221 202.0
36.145796758 212.0
36.179219295 181.0
36.212641832 243.0
36.246064370 230.0
36.279486907 250.0
36.312909444 290.0
36.346331981 264.0
36.379754519 283.0
36.413177056 273.0
36.446599593 306.0
36.480022130 283.0
36.513444668 311.0
36.546867205 300.0
36.580289742 345.0
36.613712279 331.0
36.647134816 298.0
36.680557354 318.0
36.713979891 321.0
36.747402428 313.0
36.780824965 303.0
36.814247503 273.0
36.847670040 264.0
36.881092577 247.0
36.914515114 261.0
36.947937652 247.0
36.981360189 218.0
37.014782726 220.0
37.048205263 223.0
37.081627801 187.0
37.115050338 202.0
37.148472875 169.0
37.181895412 145.0
37.215317950 137.0
37.248740487 123.0
37.282163024 130.0
37.315585561 103.0
37.349008099 86.0
37.382430636 105.0
37.415853173 87.0
37.449275710 88.0
37.482698248 76.0
37.516120785 60.0
37.549543322 80.0
37.582965859 45.0
37.616388397 64.0
37.649810934 63.0
37.683233471 81.0
37.716656008 66.0
37.750078545 58.0
37.783501083 64.0
37.816923620 73.0
37.850346157 49.0
37.883768694 43.0
37.917191232 54.0
37.950613769 40.0
37.984036306 49.0
38.017458843 49.0
38.050881381 50.0
38.084303918 33.0
38.117726455 49.0
38.151148992 57.0
38.184571530 46.0
38.217994067 36.0
38.251416604 49.0
38.284839141 38.0
38.318261679 40.0
38.351684216 47.0
38.385106753 38.0
38.418529290 44.0
38.451951828 44.0
38.485374365 44.0
38.518796902 47.0
38.552219439 37.0
38.585641977 32.0
38.619064514 44.0
38.652487051 40.0
38.685909588 44.0
38.719332125 37.0
38.752754663 44.0
38.786177200 43.0
38.819599737 41.0
38.853022274 40.0
38.886444812 30.0
38.919867349 40.0
38.953289886 46.0
38.986712423 40.0
39.020134961 38.0
39.053557498 49.0
39.086980035 52.0
39.120402572 44.0
39.153825110 34.0
39.187247647 30.0
39.220670184 46.0
39.254092721 37.0
39.287515259 36.0
39.320937796 35.0
39.354360333 38.0
39.387782870 30.0
39.421205408 38.0
39.454627945 31.0
39.488050482 38.0
39.521473019 38.0
39.554895557 33.0
39.588318094 34.0
39.621740631 51.0
39.655163168 46.0
39.688585706 37.0
39.722008243 37.0
39.755430780 41.0
39.788853317 54.0
39.822275854 40.0
39.855698392 34.0
39.889120929 57.0
39.922543466 39.0
39.955966003 40.0
39.989388541 54.0
40.022811078 45.0
40.056233615 57.0
40.089656152 46.0
40.123078690 34.0
40.156501227 41.0
40.189923764 53.0
40.223346301 36.0
40.256768839 36.0
40.290191376 45.0
40.323613913 48.0
40.357036450 46.0
40.390458988 49.0
40.423881525 40.0
40.457304062 37.0
40.490726599 52.0
40.524149137 43.0
40.557571674 46.0
40.590994211 49.0
40.624416748 44.0
40.657839286 43.0
40.691261823 55.0
40.724684360 38.0
40.758106897 57.0
40.791529434 47.0
40.824951972 53.0
40.858374509 46.0
40.891797046 44.0
40.925219583 48.0
40.958642121 38.0
40.992064658 54.0
41.025487195 45.0
41.058909732 53.0
41.092332270 48.0
41.125754807 48.0
41.159177344 50.0
41.192599881 62.0
41.226022419 73.0
41.259444956 53.0
41.292867493 64.0
41.326290030 69.0
41.359712568 80.0
41.393135105 64.0
41.426557642 60.0
41.459980179 81.0
41.493402717 87.0
41.526825254 87.0
41.560247791 58.0
41.593670328 83.0
41.627092866 81.0
41.660515403 71.0
41.693937940 85.0
41.727360477 102.0
41.760783015 97.0
41.794205552 76.0
41.827628089 102.0
41.861050626 108.0
41.894473163 101.0
41.927895701 132.0
41.961318238 129.0
41.994740775 160.0
42.028163312 143.0
42.061585850 134.0
42.095008387 233.0
42.128430924 207.0
42.161853461 213.0
42.195275999 232.0
42.228698536 282.0
42.262121073 297.0
42.295543610 266.0
42.328966148 305.0
42.362388685 331.0
42.395811222 343.0
42.429233759 329.0
42.462656297 350.0
42.496078834 364.0
42.529501371 347.0
42.562923908 376.0
42.596346446 370.0
42.629768983 361.0
42.663191520 345.0
42.696614057 341.0
42.730036595 343.0
42.763459132 354.0
42.796881669 294.0
42.830304206 325.0
42.863726743 316.0
42.897149281 305.0
42.930571818 286.0
42.963994355 255.0
42.997416892 203.0
43.030839430 192.0
43.064261967 191.0
43.097684504 199.0
43.131107041 175.0
43.164529579 125.0
43.197952116 144.0
43.231374653 113.0
43.264797190 114.0
43.298219728 106.0
43.331642265 113.0
43.365064802 85.0
43.398487339 75.0
43.431909877 79.0
43.465332414 73.0
43.498754951 54.0
43.532177488 64.0
43.565600026 57.0
43.599022563 55.0
43.632445100 55.0
43.665867637 62.0
43.699290175 43.0
43.732712712 58.0
43.766135249 55.0
43.799557786 49.0
43.832980324 51.0
43.866402861 45.0
43.899825398 34.0
43.933247935 25.0
43.966670472 39.0
44.000093010 35.0
44.033515547 25.0
44.066938084 26.0
44.100360621 36.0
44.133783159 37.0
44.167205696 38.0
44.200628233 26.0
44.234050770 26.0
44.267473308 22.0
44.300895845 29.0
44.334318382 32.0
44.367740919 34.0
44.401163457 27.0
44.434585994 32.0
44.468008531 25.0
44.501431068 21.0
44.534853606 22.0
44.568276143 27.0
44.601698680 30.0
44.635121217 24.0
44.668543755 22.0
44.701966292 24.0
44.735388829 20.0
44.768811366 25.0
44.802233904 17.0
44.835656441 22.0
44.869078978 27.0
44.902501515 31.0
44.935924052 33.0
44.969346590 27.0
45.002769127 18.0
45.036191664 12.0
45.069614201 21.0
45.103036739 16.0
45.136459276 18.0
45.169881813 12.0
45.203304350 18.0
45.236726888 12.0
45.270149425 25.0
45.303571962 15.0
45.336994499 12.0
45.370417037 20.0
45.403839574 16.0
45.437262111 12.0
45.470684648 16.0
45.504107186 10.0
45.537529723 18.0
45.570952260 16.0
45.604374797 17.0
45.637797335 23.0
45.671219872 22.0
45.704642409 20.0
45.738064946 10.0
45.771487484 20.0
45.804910021 22.0
45.838332558 22.0
45.871755095 17.0
45.905177633 10.0
45.938600170 15.0
45.972022707 13.0
46.005445244 17.0
46.038867781 18.0
46.072290319 12.0
46.105712856 18.0
46.139135393 19.0
46.172557930 16.0
46.205980468 7.0
46.239403005 17.0
46.272825542 16.0
46.306248079 12.0
46.339670617 20.0
46.373093154 15.0
46.406515691 11.0
46.439938228 13.0
46.473360766 12.0
46.506783303 19.0
46.540205840 17.0
46.573628377 20.0
46.607050915 15.0
46.640473452 9.0
46.673895989 15.0
46.707318526 11.0
46.740741064 7.0
46.774163601 21.0
46.807586138 15.0
46.841008675 16.0
46.874431213 19.0
46.907853750 20.0
46.941276287 17.0
46.974698824 20.0
47.008121362 21.0
47.041543899 13.0
47.074966436 15.0
47.108388973 17.0
47.141811510 15.0
47.175234048 10.0
47.208656585 10.0
47.242079122 10.0
47.275501659 10.0
47.308924197 13.0
47.342346734 6.0
47.375769271 11.0
47.409191808 16.0
47.442614346 24.0
47.476036883 7.0
47.509459420 13.0
47.542881957 10.0
47.576304495 11.0
47.609727032 12.0
47.643149569 15.0
47.676572106 9.0
47.709994644 12.0
47.743417181 15.0
47.776839718 19.0
47.810262255 11.0
47.843684793 7.0
47.877107330 12.0
47.910529867 10.0
47.943952404 10.0
47.977374942 10.0
48.010797479 16.0
48.044220016 15.0
48.077642553 17.0
48.111065090 10.0
48.144487628 8.0
48.177910165 6.0
48.211332702 18.0
48.244755239 13.0
48.278177777 16.0
48.311600314 12.0
48.345022851 12.0
48.378445388 7.0
48.411867926 13.0
48.445290463 9.0
48.478713000 9.0
48.512135537 10.0
48.545558075 8.0
48.578980612 18.0
48.612403149 15.0
48.645825686 12.0
48.679248224 10.0
48.712670761 13.0
48.746093298 13.0
48.779515835 6.0
48.812938373 17.0
48.846360910 17.0
48.879783447 17.0
48.913205984 9.0
48.946628522 9.0
48.980051059 12.0
49.013473596 11.0
49.046896133 11.0
49.080318671 6.0
49.113741208 13.0
49.147163745 17.0
49.180586282 7.0
49.214008819 6.0
49.247431357 7.0
49.280853894 11.0
49.314276431 11.0
49.347698968 11.0
49.381121506 16.0
49.414544043 15.0
49.447966580 8.0
49.481389117 16.0
49.514811655 15.0
49.548234192 11.0
49.581656729 11.0
49.615079266 13.0
49.648501804 6.0
49.681924341 10.0
49.715346878 9.0
49.748769415 6.0
49.782191953 15.0
49.815614490 17.0
49.849037027 10.0
49.882459564 10.0
49.915882102 12.0
49.949304639 8.0
49.982727176 16.0
50.016149713 8.0
50.049572251 19.0
50.082994788 18.0
50.116417325 11.0
50.149839862 13.0
50.183262399 12.0
50.216684937 12.0
50.250107474 11.0
50.283530011 13.0
50.316952548 16.0
50.350375086 5.0
50.383797623 13.0
50.417220160 6.0
50.450642697 10.0
50.484065235 12.0
50.517487772 6.0
50.550910309 19.0
50.584332846 9.0
50.617755384 12.0
50.651177921 10.0
50.684600458 18.0
50.718022995 16.0
50.751445533 9.0
50.784868070 8.0
50.818290607 11.0
50.851713144 8.0
50.885135682 9.0
50.918558219 7.0
50.951980756 10.0
50.985403293 10.0
51.018825831 10.0
51.052248368 13.0
51.085670905 17.0
51.119093442 10.0
51.152515980 12.0
51.185938517 15.0
51.219361054 18.0
51.252783591 9.0
51.286206128 5.0
51.319628666 18.0
51.353051203 9.0
51.386473740 6.0
51.419896277 13.0
51.453318815 11.0
51.486741352 8.0
51.520163889 15.0
51.553586426 12.0
51.587008964 6.0
51.620431501 5.0
51.653854038 7.0
51.687276575 7.0
51.720699113 11.0
51.754121650 9.0
51.787544187 11.0
51.820966724 18.0
51.854389262 10.0
51.887811799 12.0
51.921234336 13.0
51.954656873 10.0
51.988079411 13.0
52.021501948 13.0
52.054924485 12.0
52.088347022 7.0
52.121769560 11.0
52.155192097 12.0
52.188614634 9.0
52.222037171 8.0
52.255459708 9.0
52.288882246 15.0
52.322304783 12.0
52.355727320 10.0
52.389149857 13.0
52.422572395 11.0
52.455994932 9.0
52.489417469 18.0
52.522840006 9.0
52.556262544 10.0
52.589685081 5.0
52.623107618 9.0
52.656530155 19.0
52.689952693 12.0
52.723375230 11.0
52.756797767 13.0
52.790220304 10.0
52.823642842 18.0
52.857065379 9.0
52.890487916 6.0
52.923910453 11.0
52.957332991 8.0
52.990755528 10.0
53.024178065 10.0
53.057600602 12.0
53.091023140 11.0
53.124445677 6.0
53.157868214 8.0
53.191290751 8.0
53.224713289 11.0
53.258135826 12.0
53.291558363 12.0
53.324980900 15.0
53.358403437 12.0
53.391825975 10.0
53.425248512 12.0
53.458671049 13.0
53.492093586 15.0
53.525516124 9.0
53.558938661 15.0
53.592361198 10.0
53.625783735 12.0
53.659206273 7.0
53.692628810 8.0
53.726051347 12.0
53.759473884 9.0
53.792896422 7.0
53.826318959 10.0
53.859741496 16.0
53.893164033 5.0
53.926586571 5.0
53.960009108 8.0
53.993431645 10.0
54.026854182 10.0
54.060276720 11.0
54.093699257 7.0
54.127121794 10.0
54.160544331 11.0
54.193966869 5.0
54.227389406 9.0
54.260811943 8.0
54.294234480 15.0
54.327657017 13.0
54.361079555 9.0
54.394502092 7.0
54.427924629 20.0
54.461347166 6.0
54.494769704 8.0
54.528192241 11.0
54.561614778 15.0
54.595037315 15.0
54.628459853 13.0
54.661882390 5.0
54.695304927 11.0
54.728727464 12.0
54.762150002 8.0
54.795572539 5.0
54.828995076 13.0
54.862417613 15.0
54.895840151 12.0
54.929262688 12.0
54.962685225 11.0
54.996107762 7.0
55.029530300 10.0
55.062952837 7.0
55.096375374 7.0
55.129797911 24.0
55.163220449 11.0
55.196642986 10.0
55.230065523 15.0
55.263488060 18.0
55.296910598 10.0
55.330333135 15.0
55.363755672 12.0
55.397178209 18.0
55.430600746 12.0
55.464023284 18.0
55.497445821 7.0
55.530868358 13.0
55.564290895 13.0
55.597713433 9.0
55.631135970 9.0
55.664558507 15.0
55.697981044 9.0
55.731403582 8.0
55.764826119 8.0
55.798248656 11.0
55.831671193 7.0
55.865093731 5.0
55.898516268 8.0
55.931938805 9.0
55.965361342 9.0
55.998783880 7.0
56.032206417 12.0
56.065628954 13.0
56.099051491 10.0
56.132474029 12.0
56.165896566 10.0
56.199319103 11.0
56.232741640 7.0
56.266164178 8.0
56.299586715 10.0
56.333009252 10.0
56.366431789 7.0
56.399854326 9.0
56.433276864 8.0
56.466699401 12.0
56.500121938 12.0
56.533544475 8.0
56.566967013 9.0
56.600389550 12.0
56.633812087 8.0
56.667234624 11.0
56.700657162 11.0
56.734079699 9.0
56.767502236 10.0
56.800924773 10.0
56.834347311 15.0
56.867769848 17.0
56.901192385 7.0
56.934614922 7.0
56.968037460 13.0
57.001459997 18.0
57.034882534 8.0
57.068305071 11.0
57.101727609 16.0
57.135150146 7.0
57.168572683 13.0
57.201995220 5.0
57.235417758 16.0
57.268840295 10.0
57.302262832 11.0
57.335685369 6.0
57.369107907 12.0
57.402530444 11.0
57.435952981 10.0
57.469375518 15.0
57.502798055 12.0
57.536220593 13.0
57.569643130 17.0
57.603065667 7.0
57.636488204 7.0
57.669910742 6.0
57.703333279 8.0
57.736755816 8.0
57.770178353 12.0
57.803600891 13.0
57.837023428 12.0
57.870445965 13.0
57.903868502 11.0
57.937291040 13.0
57.970713577 12.0
58.004136114 7.0
58.037558651 12.0
58.070981189 18.0
58.104403726 8.0
58.137826263 11.0
58.171248800 15.0
58.204671338 15.0
58.238093875 10.0
58.271516412 10.0
58.304938949 18.0
58.338361487 12.0
58.371784024 10.0
58.405206561 11.0
58.438629098 7.0
58.472051635 13.0
58.505474173 13.0
58.538896710 16.0
58.572319247 9.0
58.605741784 9.0
58.639164322 8.0
58.672586859 8.0
58.706009396 12.0
58.739431933 15.0
58.772854471 4.0
58.806277008 15.0
58.839699545 11.0
58.873122082 10.0
58.906544620 10.0
58.939967157 11.0
58.973389694 5.0
59.006812231 9.0
59.040234769 13.0
59.073657306 8.0
59.107079843 11.0
59.140502380 11.0
59.173924918 13.0
59.207347455 6.0
59.240769992 9.0
59.274192529 7.0
59.307615067 13.0
59.341037604 15.0
59.374460141 8.0
59.407882678 13.0
59.441305216 7.0
59.474727753 13.0
59.508150290 6.0
59.541572827 9.0
59.574995364 9.0
59.608417902 12.0
59.641840439 9.0
59.675262976 13.0
59.708685513 8.0
59.742108051 10.0
59.775530588 11.0
59.808953125 8.0
59.842375662 13.0
59.875798200 10.0
59.909220737 13.0
59.942643274 12.0
59.976065811 13.0
60.009488349 17.0
60.042910886 10.0
60.076333423 13.0
60.109755960 11.0
60.143178498 8.0
60.176601035 16.0
60.210023572 11.0
60.243446109 18.0
60.276868647 9.0
60.310291184 10.0
60.343713721 9.0
60.377136258 17.0
60.410558796 3.0
60.443981333 9.0
60.477403870 12.0
60.510826407 18.0
60.544248944 8.0
60.577671482 15.0
60.611094019 10.0
60.644516556 12.0
60.677939093 12.0
60.711361631 12.0
60.744784168 11.0
60.778206705 6.0
60.811629242 19.0
60.845051780 17.0
60.878474317 10.0
60.911896854 15.0
60.945319391 17.0
60.978741929 8.0
61.012164466 7.0
61.045587003 11.0
61.079009540 8.0
61.112432078 10.0
61.145854615 16.0
61.179277152 21.0
61.212699689 9.0
61.246122227 11.0
61.279544764 12.0
61.312967301 9.0
61.346389838 17.0
61.379812376 20.0
61.413234913 11.0
61.446657450 16.0
61.480079987 11.0
61.513502525 6.0
61.546925062 16.0
61.580347599 12.0
61.613770136 19.0
61.647192673 17.0
61.680615211 12.0
61.714037748 15.0
61.747460285 20.0
61.780882822 19.0
61.814305360 12.0
61.847727897 9.0
61.881150434 16.0
61.914572971 12.0
61.947995509 13.0
61.981418046 18.0
62.014840583 13.0
62.048263120 10.0
62.081685658 16.0
62.115108195 11.0
62.148530732 16.0
62.181953269 19.0
62.215375807 13.0
62.248798344 13.0
62.282220881 10.0
62.315643418 18.0
62.349065956 13.0
62.382488493 8.0
62.415911030 13.0
62.449333567 7.0
62.482756105 13.0
62.516178642 15.0
62.549601179 12.0
62.583023716 11.0
62.616446253 18.0
62.649868791 11.0
62.683291328 25.0
62.716713865 15.0
62.750136402 13.0
62.783558940 12.0
62.816981477 13.0
62.850404014 23.0
62.883826551 7.0
62.917249089 11.0
62.950671626 11.0
62.984094163 17.0
63.017516700 10.0
63.050939238 22.0
63.084361775 16.0
63.117784312 20.0
63.151206849 13.0
63.184629387 18.0
63.218051924 13.0
63.251474461 16.0
63.284896998 12.0
63.318319536 9.0
63.351742073 19.0
63.385164610 15.0
63.418587147 15.0
63.452009685 11.0
63.485432222 11.0
63.518854759 20.0
63.552277296 17.0
63.585699834 9.0
63.619122371 10.0
63.652544908 7.0
63.685967445 11.0
63.719389982 12.0
63.752812520 18.0
63.786235057 17.0
63.819657594 16.0
63.853080131 13.0
63.886502669 17.0
63.919925206 18.0
63.953347743 17.0
63.986770280 12.0
64.020192818 9.0
64.053615355 19.0
64.087037892 22.0
64.120460429 15.0
64.153882967 12.0
64.187305504 13.0
64.220728041 19.0
64.254150578 23.0
64.287573116 19.0
64.320995653 19.0
64.354418190 15.0
64.387840727 25.0
64.421263265 16.0
64.454685802 17.0
64.488108339 12.0
64.521530876 5.0
64.554953414 26.0
64.588375951 12.0
64.621798488 13.0
64.655221025 21.0
64.688643562 11.0
64.722066100 12.0
64.755488637 19.0
64.788911174 9.0
64.822333711 18.0
64.855756249 25.0
64.889178786 17.0
64.922601323 19.0
64.956023860 15.0
64.989446398 26.0
65.022868935 20.0
65.056291472 16.0
65.089714009 11.0
65.123136547 27.0
65.156559084 18.0
65.189981621 13.0
65.223404158 15.0
65.256826696 22.0
65.290249233 18.0
65.323671770 20.0
65.357094307 17.0
65.390516845 17.0
65.423939382 21.0
65.457361919 27.0
65.490784456 22.0
65.524206994 19.0
65.557629531 23.0
65.591052068 16.0
65.624474605 18.0
65.657897143 24.0
65.691319680 23.0
65.724742217 22.0
65.758164754 24.0
65.791587291 22.0
65.825009829 22.0
65.858432366 30.0
65.891854903 26.0
65.925277440 25.0
65.958699978 22.0
65.992122515 23.0
66.025545052 20.0
66.058967589 27.0
66.092390127 23.0
66.125812664 21.0
66.159235201 24.0
66.192657738 27.0
66.226080276 20.0
66.259502813 33.0
66.292925350 18.0
66.326347887 25.0
66.359770425 20.0
66.393192962 24.0
66.426615499 30.0
66.460038036 41.0
66.493460574 48.0
66.526883111 69.0
66.560305648 80.0
66.593728185 74.0
66.627150723 75.0
66.660573260 79.0
66.693995797 74.0
66.727418334 91.0
66.760840871 78.0
66.794263409 74.0
66.827685946 80.0
66.861108483 75.0
66.894531020 83.0
66.927953558 81.0
66.961376095 67.0
66.994798632 75.0
67.028221169 72.0
67.061643707 80.0
67.095066244 88.0
67.128488781 75.0
67.161911318 85.0
67.195333856 88.0
67.228756393 95.0
67.262178930 97.0
67.295601467 105.0
67.329024005 96.0
67.362446542 89.0
67.395869079 113.0
67.429291616 117.0
67.462714154 94.0
67.496136691 94.0
67.529559228 105.0
67.562981765 120.0
67.596404303 137.0
67.629826840 110.0
67.663249377 144.0
67.696671914 114.0
67.730094452 135.0
67.763516989 129.0
67.796939526 134.0
67.830362063 144.0
67.863784600 134.0
67.897207138 150.0
67.930629675 155.0
67.964052212 186.0
67.997474749 172.0
68.030897287 147.0
68.064319824 162.0
68.097742361 186.0
68.131164898 157.0
68.164587436 170.0
68.198009973 175.0
68.231432510 221.0
68.264855047 206.0
68.298277585 207.0
68.331700122 236.0
68.365122659 246.0
68.398545196 238.0
68.431967734 240.0
68.465390271 261.0
68.498812808 256.0
68.532235345 265.0
68.565657883 305.0
68.599080420 325.0
68.632502957 335.0
68.665925494 381.0
68.699348032 422.0
68.732770569 558.0
68.766193106 673.0
68.799615643 877.0
68.833038180 1076.0
68.866460718 1236.0
68.899883255 1136.0
68.933305792 1116.0
68.966728329 1213.0
69.000150867 1501.0
69.033573404 1991.0
69.066995941 3274.0
69.100418478 5530.0
69.133841016 13691.0
69.167263553 74630.0
69.200686090 111185.0
69.234108627 26995.0
69.267531165 8719.0
69.300953702 6071.0
69.334376239 10071.0
69.367798776 46366.0
69.401221314 53354.0
69.434643851 13165.0
69.468066388 4456.0
69.501488925 2318.0
69.534911463 1637.0
69.568334000 1196.0
69.601756537 997.0
69.635179074 892.0
69.668601612 741.0
69.702024149 621.0
69.735446686 606.0
69.768869223 539.0
69.802291761 447.0
69.835714298 406.0
69.869136835 385.0
69.902559372 367.0
69.935981909 364.0
69.969404447 326.0
70.002826984 297.0
70.036249521 272.0
70.069672058 274.0
70.103094596 265.0
70.136517133 235.0
70.169939670 240.0
70.203362207 215.0
70.236784745 242.0
70.270207282 244.0
70.303629819 217.0
70.337052356 202.0
70.370474894 202.0
70.403897431 181.0
70.437319968 207.0
70.470742505 175.0
70.504165043 177.0
70.537587580 164.0
70.571010117 142.0
70.604432654 138.0
70.637855192 120.0
70.671277729 146.0
70.704700266 142.0
70.738122803 149.0
70.771545341 117.0
70.804967878 131.0
70.838390415 129.0
70.871812952 121.0
70.905235489 102.0
70.938658027 120.0
70.972080564 124.0
71.005503101 129.0
71.038925638 103.0
71.072348176 103.0
71.105770713 113.0
71.139193250 86.0
71.172615787 100.0
71.206038325 95.0
71.239460862 72.0
71.272883399 91.0
71.306305936 86.0
71.339728474 87.0
71.373151011 83.0
71.406573548 100.0
71.439996085 65.0
71.473418623 74.0
71.506841160 81.0
71.540263697 68.0
71.573686234 62.0
71.607108772 69.0
71.640531309 74.0
71.673953846 68.0
71.707376383 64.0
71.740798921 55.0
71.774221458 52.0
71.807643995 60.0
71.841066532 52.0
71.874489070 46.0
71.907911607 60.0
71.941334144 63.0
71.974756681 54.0
72.008179218 65.0
72.041601756 46.0
72.075024293 44.0
72.108446830 52.0
72.141869367 35.0
72.175291905 31.0
72.208714442 37.0
72.242136979 46.0
72.275559516 47.0
72.308982054 34.0
72.342404591 45.0
72.375827128 50.0
72.409249665 40.0
72.442672203 36.0
72.476094740 33.0
72.509517277 39.0
72.542939814 34.0
72.576362352 25.0
72.609784889 33.0
72.643207426 38.0
72.676629963 34.0
72.710052501 32.0
72.743475038 44.0
72.776897575 29.0
72.810320112 23.0
72.843742650 30.0
72.877165187 23.0
72.910587724 18.0
72.944010261 36.0
72.977432798 24.0
73.010855336 25.0
73.044277873 34.0
73.077700410 37.0
73.111122947 24.0
73.144545485 22.0
73.177968022 40.0
73.211390559 32.0
73.244813096 24.0
73.278235634 21.0
73.311658171 25.0
73.345080708 27.0
73.378503245 24.0
73.411925783 30.0
73.445348320 27.0
73.478770857 27.0
73.512193394 29.0
73.545615932 30.0
73.579038469 23.0
73.612461006 22.0
73.645883543 25.0
73.679306081 17.0
73.712728618 20.0
73.746151155 18.0
73.779573692 18.0
73.812996230 21.0
73.846418767 22.0
73.879841304 21.0
73.913263841 17.0
73.946686379 24.0
73.980108916 20.0
74.013531453 20.0
74.046953990 23.0
74.080376527 26.0
74.113799065 19.0
74.147221602 18.0
74.180644139 18.0
74.214066676 25.0
74.247489214 20.0
74.280911751 16.0
74.314334288 29.0
74.347756825 30.0
74.381179363 21.0
74.414601900 22.0
74.448024437 18.0
74.481446974 16.0
74.514869512 18.0
74.548292049 20.0
74.581714586 18.0
74.615137123 23.0
74.648559661 13.0
74.681982198 29.0
74.715404735 22.0
74.748827272 23.0
74.782249810 22.0
74.815672347 22.0
74.849094884 16.0
74.882517421 21.0
74.915939959 20.0
74.949362496 10.0
74.982785033 26.0
75.016207570 16.0
75.049630108 9.0
75.083052645 12.0
75.116475182 18.0
75.149897719 18.0
75.183320256 16.0
75.216742794 16.0
75.250165331 17.0
75.283587868 17.0
75.317010405 10.0
75.350432943 18.0
75.383855480 12.0
75.417278017 8.0
75.450700554 16.0
75.484123092 11.0
75.517545629 25.0
75.550968166 15.0
75.584390703 8.0
75.617813241 13.0
75.651235778 21.0
75.684658315 13.0
75.718080852 17.0
75.751503390 25.0
75.784925927 13.0
75.818348464 11.0
75.851771001 15.0
75.885193539 9.0
75.918616076 9.0
75.952038613 17.0
75.985461150 19.0
76.018883688 10.0
76.052306225 11.0
76.085728762 15.0
76.119151299 10.0
76.152573836 12.0
76.185996374 13.0
76.219418911 17.0
76.252841448 13.0
76.286263985 9.0
76.319686523 11.0
76.353109060 7.0
76.386531597 16.0
76.419954134 16.0
76.453376672 12.0
76.486799209 21.0
76.520221746 11.0
76.553644283 13.0
76.587066821 15.0
76.620489358 17.0
76.653911895 17.0
76.687334432 13.0
76.720756970 15.0
76.754179507 18.0
76.787602044 17.0
76.821024581 21.0
76.854447119 13.0
76.887869656 20.0
76.921292193 9.0
76.954714730 20.0
76.988137268 10.0
77.021559805 17.0
77.054982342 20.0
77.088404879 20.0
77.121827417 18.0
77.155249954 26.0
77.188672491 26.0
77.222095028 29.0
77.255517565 21.0
77.288940103 29.0
77.322362640 26.0
77.355785177 20.0
77.389207714 29.0
77.422630252 29.0
77.456052789 30.0
77.489475326 33.0
77.522897863 31.0
77.556320401 30.0
77.589742938 33.0
77.623165475 39.0
77.656588012 36.0
77.690010550 32.0
77.723433087 29.0
77.756855624 29.0
77.790278161 37.0
77.823700699 30.0
77.857123236 39.0
77.890545773 37.0
77.923968310 40.0
77.957390848 26.0
77.990813385 37.0
78.024235922 45.0
78.057658459 48.0
78.091080997 30.0
78.124503534 45.0
78.157926071 49.0
78.191348608 37.0
78.224771145 30.0
78.258193683 49.0
78.291616220 38.0
78.325038757 38.0
78.358461294 24.0
78.391883832 32.0
78.425306369 23.0
78.458728906 22.0
78.492151443 20.0
78.525573981 25.0
78.558996518 33.0
78.592419055 33.0
78.625841592 24.0
78.659264130 20.0
78.692686667 25.0
78.726109204 17.0
78.759531741 23.0
78.792954279 15.0
78.826376816 19.0
78.859799353 16.0
78.893221890 18.0
78.926644428 15.0
78.960066965 17.0
78.993489502 21.0
79.026912039 20.0
79.060334577 19.0
79.093757114 12.0
79.127179651 11.0
79.160602188 13.0
79.194024726 16.0
79.227447263 21.0
79.260869800 11.0
79.294292337 17.0
79.327714874 12.0
79.361137412 21.0
79.394559949 15.0
79.427982486 13.0
79.461405023 12.0
79.494827561 6.0
79.528250098 13.0
79.561672635 18.0
79.595095172 13.0
79.628517710 12.0
79.661940247 6.0
79.695362784 13.0
79.728785321 7.0
79.762207859 11.0
79.795630396 15.0
79.829052933 12.0
79.862475470 9.0
79.895898008 16.0
79.929320545 8.0
79.962743082 7.0
79.996165619 10.0
80.029588157 11.0
80.063010694 7.0
80.096433231 8.0
80.129855768 9.0
80.163278306 11.0
80.196700843 10.0
80.230123380 4.0
80.263545917 10.0
80.296968454 11.0
80.330390992 12.0
80.363813529 8.0
80.397236066 11.0
80.430658603 10.0
80.464081141 13.0
80.497503678 7.0
80.530926215 8.0
80.564348752 8.0
80.597771290 4.0
80.631193827 12.0
80.664616364 8.0
80.698038901 6.0
80.731461439 10.0
80.764883976 15.0
80.798306513 9.0
80.831729050 9.0
80.865151588 5.0
80.898574125 10.0
80.931996662 7.0
80.965419199 10.0
80.998841737 5.0
81.032264274 8.0
81.065686811 8.0
81.099109348 6.0
81.132531886 6.0
81.165954423 9.0
81.199376960 9.0
81.232799497 8.0
81.266222035 8.0
81.299644572 4.0
81.333067109 11.0
81.366489646 8.0
81.399912183 12.0
81.433334721 7.0
81.466757258 11.0
81.500179795 15.0
81.533602332 15.0
81.567024870 10.0
81.600447407 4.0
81.633869944 6.0
81.667292481 4.0
81.700715019 8.0
81.734137556 7.0
81.767560093 10.0
81.800982630 6.0
81.834405168 12.0
81.867827705 7.0
81.901250242 10.0
81.934672779 6.0
81.968095317 5.0
82.001517854 6.0
82.034940391 11.0
82.068362928 5.0
82.101785466 9.0
82.135208003 6.0
82.168630540 5.0
82.202053077 8.0
82.235475615 8.0
82.268898152 5.0
82.302320689 6.0
82.335743226 3.0
82.369165763 8.0
82.402588301 7.0
82.436010838 4.0
82.469433375 8.0
82.502855912 8.0
82.536278450 6.0
82.569700987 7.0
82.603123524 9.0
82.636546061 12.0
82.669968599 7.0
82.703391136 5.0
82.736813673 8.0
82.770236210 7.0
82.803658748 9.0
82.837081285 7.0
82.870503822 7.0
82.903926359 5.0
82.937348897 5.0
82.970771434 6.0
83.004193971 7.0
83.037616508 11.0
83.071039046 8.0
83.104461583 10.0
83.137884120 8.0
83.171306657 12.0
83.204729195 5.0
83.238151732 13.0
83.271574269 7.0
83.304996806 5.0
83.338419344 8.0
83.371841881 6.0
83.405264418 8.0
83.438686955 4.0
83.472109492 6.0
83.505532030 8.0
83.538954567 5.0
83.572377104 9.0
83.605799641 2.0
83.639222179 11.0
83.672644716 7.0
83.706067253 5.0
83.739489790 7.0
83.772912328 7.0
83.806334865 11.0
83.839757402 6.0
83.873179939 3.0
83.906602477 8.0
83.940025014 8.0
83.973447551 5.0
84.006870088 9.0
84.040292626 10.0
84.073715163 5.0
84.107137700 9.0
84.140560237 6.0
84.173982775 8.0
84.207405312 4.0
84.240827849 6.0
84.274250386 4.0
84.307672924 10.0
84.341095461 7.0
84.374517998 8.0
84.407940535 5.0
84.441363072 5.0
84.474785610 11.0
84.508208147 3.0
84.541630684 5.0
84.575053221 4.0
84.608475759 8.0
84.641898296 4.0
84.675320833 9.0
84.708743370 7.0
84.742165908 8.0
84.775588445 8.0
84.809010982 6.0
84.842433519 4.0
84.875856057 10.0
84.909278594 3.0
84.942701131 4.0
84.976123668 7.0
85.009546206 4.0
85.042968743 3.0
85.076391280 10.0
85.109813817 4.0
85.143236355 4.0
85.176658892 4.0
85.210081429 6.0
85.243503966 12.0
85.276926504 9.0
85.310349041 7.0
85.343771578 3.0
85.377194115 7.0
85.410616653 7.0
85.444039190 15.0
85.477461727 4.0
85.510884264 7.0
85.544306801 6.0
85.577729339 4.0
85.611151876 6.0
85.644574413 6.0
85.677996950 5.0
85.711419488 7.0
85.744842025 9.0
85.778264562 11.0
85.811687099 4.0
85.845109637 4.0
85.878532174 7.0
85.911954711 7.0
85.945377248 4.0
85.978799786 4.0
86.012222323 7.0
86.045644860 7.0
86.079067397 9.0
86.112489935 9.0
86.145912472 8.0
86.179335009 7.0
86.212757546 8.0
86.246180084 11.0
86.279602621 8.0
86.313025158 4.0
86.346447695 3.0
86.379870233 3.0
86.413292770 7.0
86.446715307 8.0
86.480137844 4.0
86.513560381 8.0
86.546982919 4.0
86.580405456 4.0
86.613827993 7.0
86.647250530 10.0
86.680673068 2.0
86.714095605 5.0
86.747518142 4.0
86.780940679 4.0
86.814363217 4.0
86.847785754 6.0
86.881208291 10.0
86.914630828 9.0
86.948053366 6.0
86.981475903 2.0
87.014898440 4.0
87.048320977 8.0
87.081743515 8.0
87.115166052 8.0
87.148588589 6.0
87.182011126 5.0
87.215433664 8.0
87.248856201 9.0
87.282278738 8.0
87.315701275 9.0
87.349123813 10.0
87.382546350 8.0
87.415968887 7.0
87.449391424 10.0
87.482813962 3.0
87.516236499 6.0
87.549659036 13.0
87.583081573 6.0
87.616504110 6.0
87.649926648 10.0
87.683349185 9.0
87.716771722 7.0
87.750194259 11.0
87.783616797 4.0
87.817039334 8.0
87.850461871 6.0
87.883884408 8.0
87.917306946 9.0
87.950729483 4.0
87.984152020 2.0
88.017574557 5.0
88.050997095 6.0
88.084419632 6.0
88.117842169 4.0
88.151264706 3.0
88.184687244 9.0
88.218109781 9.0
88.251532318 8.0
88.284954855 12.0
88.318377393 10.0
88.351799930 6.0
88.385222467 6.0
88.418645004 4.0
88.452067542 7.0
88.485490079 6.0
88.518912616 4.0
88.552335153 9.0
88.585757690 6.0
88.619180228 7.0
88.652602765 5.0
88.686025302 8.0
88.719447839 4.0
88.752870377 6.0
88.786292914 2.0
88.819715451 9.0
88.853137988 6.0
88.886560526 9.0
88.919983063 7.0
88.953405600 3.0
88.986828137 7.0
89.020250675 9.0
89.053673212 2.0
89.087095749 6.0
89.120518286 5.0
89.153940824 9.0
89.187363361 7.0
89.220785898 6.0
89.254208435 4.0
89.287630973 7.0
89.321053510 9.0
89.354476047 4.0
89.387898584 3.0
89.421321122 4.0
89.454743659 9.0
89.488166196 8.0
89.521588733 7.0
89.555011271 8.0
89.588433808 3.0
89.621856345 4.0
89.655278882 9.0
89.688701419 5.0
89.722123957 7.0
89.755546494 4.0
89.788969031 7.0
89.822391568 3.0
89.855814106 10.0
89.889236643 5.0
89.922659180 6.0
89.956081717 9.0
89.989504255 4.0
90.022926792 10.0
90.056349329 10.0
90.089771866 5.0
90.123194404 9.0
90.156616941 16.0
90.190039478 3.0
90.223462015 3.0
90.256884553 10.0
90.290307090 4.0
90.323729627 8.0
90.357152164 7.0
90.390574702 5.0
90.423997239 6.0
90.457419776 8.0
90.490842313 4.0
90.524264851 9.0
90.557687388 5.0
90.591109925 6.0
90.624532462 7.0
90.657954999 11.0
90.691377537 5.0
90.724800074 5.0
90.758222611 7.0
90.791645148 9.0
90.825067686 8.0
90.858490223 5.0
90.891912760 5.0
90.925335297 7.0
90.958757835 5.0
90.992180372 6.0
91.025602909 10.0
91.059025446 10.0
91.092447984 10.0
91.125870521 8.0
91.159293058 5.0
91.192715595 12.0
91.226138133 9.0
91.259560670 6.0
91.292983207 6.0
91.326405744 15.0
91.359828282 4.0
91.393250819 8.0
91.426673356 8.0
91.460095893 4.0
91.493518431 7.0
91.526940968 7.0
91.560363505 7.0
91.593786042 9.0
91.627208580 11.0
91.660631117 11.0
91.694053654 6.0
91.727476191 7.0
91.760898728 3.0
91.794321266 9.0
91.827743803 7.0
91.861166340 7.0
91.894588877 6.0
91.928011415 8.0
91.961433952 16.0
91.994856489 7.0
92.028279026 6.0
92.061701564 7.0
92.095124101 7.0
92.128546638 11.0
92.161969175 11.0
92.195391713 13.0
92.228814250 9.0
92.262236787 18.0
92.295659324 9.0
92.329081862 11.0
92.362504399 12.0
92.395926936 7.0
92.429349473 11.0
92.462772011 8.0
92.496194548 12.0
92.529617085 16.0
92.563039622 12.0
92.596462160 10.0
92.629884697 17.0
92.663307234 12.0
92.696729771 22.0
92.730152308 10.0
92.763574846 25.0
92.796997383 18.0
92.830419920 17.0
92.863842457 13.0
92.897264995 16.0
92.930687532 10.0
92.964110069 20.0
92.997532606 25.0
93.030955144 19.0
93.064377681 13.0
93.097800218 17.0
93.131222755 13.0
93.164645293 20.0
93.198067830 12.0
93.231490367 15.0
93.264912904 17.0
93.298335442 15.0
93.331757979 12.0
93.365180516 15.0
93.398603053 15.0
93.432025591 13.0
93.465448128 11.0
93.498870665 15.0
93.532293202 16.0
93.565715740 8.0
93.599138277 21.0
93.632560814 6.0
93.665983351 20.0
93.699405889 12.0
93.732828426 11.0
93.766250963 13.0
93.799673500 10.0
93.833096037 10.0
93.866518575 10.0
93.899941112 15.0
93.933363649 8.0
93.966786186 9.0
94.000208724 13.0
94.033631261 10.0
94.067053798 8.0
94.100476335 11.0
94.133898873 8.0
94.167321410 13.0
94.200743947 10.0
94.234166484 9.0
94.267589022 9.0
94.301011559 8.0
94.334434096 10.0
94.367856633 8.0
94.401279171 9.0
94.434701708 12.0
94.468124245 9.0
94.501546782 11.0
94.534969320 11.0
94.568391857 9.0
94.601814394 6.0
94.635236931 7.0
94.668659469 8.0
94.702082006 9.0
94.735504543 10.0
94.768927080 9.0
94.802349617 6.0
94.835772155 7.0
94.869194692 8.0
94.902617229 10.0
94.936039766 7.0
94.969462304 10.0
95.002884841 4.0
95.036307378 8.0
95.069729915 7.0
95.103152453 5.0
95.136574990 7.0
95.169997527 4.0
95.203420064 7.0
95.236842602 3.0
95.270265139 8.0
95.303687676 6.0
95.337110213 4.0
95.370532751 5.0
95.403955288 7.0
95.437377825 11.0
95.470800362 4.0
95.504222900 8.0
95.537645437 9.0
95.571067974 6.0
95.604490511 7.0
95.637913049 7.0
95.671335586 9.0
95.704758123 11.0
95.738180660 11.0
95.771603198 9.0
95.805025735 12.0
95.838448272 10.0
95.871870809 6.0
95.905293346 7.0
95.938715884 6.0
95.972138421 4.0
96.005560958 9.0
96.038983495 8.0
96.072406033 11.0
96.105828570 13.0
96.139251107 6.0
96.172673644 7.0
96.206096182 6.0
96.239518719 3.0
96.272941256 5.0
96.306363793 5.0
96.339786331 6.0
96.373208868 5.0
96.406631405 7.0
96.440053942 6.0
96.473476480 3.0
96.506899017 7.0
96.540321554 7.0
96.573744091 15.0
96.607166629 5.0
96.640589166 5.0
96.674011703 6.0
96.707434240 9.0
96.740856778 7.0
96.774279315 11.0
96.807701852 6.0
96.841124389 7.0
96.874546926 9.0
96.907969464 7.0
96.941392001 2.0
96.974814538 4.0
97.008237075 4.0
97.041659613 9.0
97.075082150 7.0
97.108504687 4.0
97.141927224 5.0
97.175349762 10.0
97.208772299 2.0
97.242194836 8.0
97.275617373 3.0
97.309039911 9.0
97.342462448 6.0
97.375884985 5.0
97.409307522 6.0
97.442730060 2.0
97.476152597 4.0
97.509575134 6.0
97.542997671 4.0
97.576420209 6.0
97.609842746 12.0
97.643265283 6.0
97.676687820 3.0
97.710110358 4.0
97.743532895 4.0
97.776955432 9.0
97.810377969 8.0
97.843800507 7.0
97.877223044 5.0
97.910645581 6.0
97.944068118 11.0
97.977490655 5.0
98.010913193 6.0
98.044335730 5.0
98.077758267 7.0
98.111180804 2.0
98.144603342 6.0
98.178025879 7.0
98.211448416 8.0
98.244870953 8.0
98.278293491 2.0
98.311716028 2.0
98.345138565 9.0
98.378561102 5.0
98.411983640 8.0
98.445406177 6.0
98.478828714 6.0
98.512251251 8.0
98.545673789 10.0
98.579096326 4.0
98.612518863 4.0
98.645941400 2.0
98.679363938 8.0
98.712786475 9.0
98.746209012 2.0
98.779631549 6.0
98.813054087 5.0
98.846476624 9.0
98.879899161 3.0
98.913321698 7.0
98.946744235 8.0
98.980166773 3.0
99.013589310 9.0
99.047011847 3.0
99.080434384 2.0
99.113856922 9.0
99.147279459 4.0
99.180701996 3.0
99.214124533 9.0
99.247547071 5.0
99.280969608 7.0
99.314392145 5.0
99.347814682 7.0
99.381237220 12.0
99.414659757 9.0
99.448082294 6.0
99.481504831 8.0
99.514927369 6.0
99.548349906 5.0
99.581772443 9.0
99.615194980 3.0
99.648617518 11.0
99.682040055 8.0
99.715462592 7.0
99.748885129 8.0
99.782307667 5.0
99.815730204 8.0
99.849152741 7.0
99.882575278 5.0
99.915997816 6.0
99.949420353 3.0
99.982842890 7.0
