20.002711270 81.0
20.036133807 79.0
20.069556344 68.0
20.102978882 86.0
20.136401419 85.0
20.169823956 82.0
20.203246493 75.0
20.236669031 78.0
20.270091568 79.0
20.303514105 87.0
20.336936642 81.0
20.370359180 72.0
20.403781717 64.0
20.437204254 78.0
20.470626791 90.0
20.504049329 71.0
20.537471866 63.0
20.570894403 75.0
20.604316940 80.0
20.637739478 65.0
20.671162015 77.0
20.704584552 87.0
20.738007089 64.0
20.771429627 67.0
20.804852164 64.0
20.838274701 75.0
20.871697238 87.0
20.905119776 80.0
20.938542313 80.0
20.971964850 69.0
21.005387387 69.0
21.038809925 78.0
21.072232462 76.0
21.105654999 73.0
21.139077536 85.0
21.172500073 64.0
21.205922611 82.0
21.239345148 62.0
21.272767685 54.0
21.306190222 85.0
21.339612760 86.0
21.373035297 64.0
21.406457834 74.0
21.439880371 69.0
21.473302909 65.0
21.506725446 55.0
21.540147983 79.0
21.573570520 73.0
21.606993058 69.0
21.640415595 82.0
21.673838132 74.0
21.707260669 62.0
21.740683207 68.0
21.774105744 55.0
21.807528281 66.0
21.840950818 65.0
21.874373356 55.0
21.907795893 71.0
21.941218430 65.0
21.974640967 63.0
22.008063505 78.0
22.041486042 72.0
22.074908579 53.0
22.108331116 69.0
22.141753653 58.0
22.175176191 60.0
22.208598728 68.0
22.242021265 69.0
22.275443802 74.0
22.308866340 68.0
22.342288877 69.0
22.375711414 55.0
22.409133951 67.0
22.442556489 63.0
22.475979026 68.0
22.509401563 77.0
22.542824100 64.0
22.576246638 68.0
22.609669175 63.0
22.643091712 54.0
22.676514249 69.0
22.709936787 59.0
22.743359324 69.0
22.776781861 61.0
22.810204398 77.0
22.843626936 78.0
22.877049473 62.0
22.910472010 67.0
22.943894547 58.0
22.977317085 61.0
23.010739622 77.0
23.044162159 63.0
23.077584696 58.0
23.111007234 65.0
23.144429771 69.0
23.177852308 59.0
23.211274845 69.0
23.244697382 53.0
23.278119920 58.0
23.311542457 58.0
23.344964994 66.0
23.378387531 74.0
23.411810069 73.0
23.445232606 61.0
23.478655143 58.0
23.512077680 60.0
23.545500218 57.0
23.578922755 51.0
23.612345292 67.0
23.645767829 47.0
23.679190367 59.0
23.712612904 66.0
23.746035441 54.0
23.779457978 66.0
23.812880516 55.0
23.846303053 50.0
23.879725590 52.0
23.913148127 52.0
23.946570665 47.0
23.979993202 53.0
24.013415739 53.0
24.046838276 46.0
24.080260814 52.0
24.113683351 49.0
24.147105888 51.0
24.180528425 58.0
24.213950962 66.0
24.247373500 47.0
24.280796037 58.0
24.314218574 63.0
24.347641111 64.0
24.381063649 54.0
24.414486186 41.0
24.447908723 62.0
24.481331260 53.0
24.514753798 65.0
24.548176335 61.0
24.581598872 47.0
24.615021409 54.0
24.648443947 62.0
24.681866484 48.0
24.715289021 57.0
24.748711558 45.0
24.782134096 60.0
24.815556633 63.0
24.848979170 68.0
24.882401707 55.0
24.915824245 53.0
24.949246782 50.0
24.982669319 50.0
25.016091856 38.0
25.049514394 48.0
25.082936931 57.0
25.116359468 60.0
25.149782005 62.0
25.183204543 43.0
25.216627080 45.0
25.250049617 59.0
25.283472154 38.0
25.316894691 61.0
25.350317229 50.0
25.383739766 61.0
25.417162303 43.0
25.450584840 54.0
25.484007378 44.0
25.517429915 52.0
25.550852452 55.0
25.584274989 45.0
25.617697527 45.0
25.651120064 47.0
25.684542601 39.0
25.717965138 46.0
25.751387676 55.0
25.784810213 58.0
25.818232750 61.0
25.851655287 53.0
25.885077825 50.0
25.918500362 53.0
25.951922899 43.0
25.985345436 45.0
26.018767974 43.0
26.052190511 52.0
26.085613048 52.0
26.119035585 40.0
26.152458123 48.0
26.185880660 48.0
26.219303197 44.0
26.252725734 51.0
26.286148271 51.0
26.319570809 55.0
26.352993346 50.0
26.386415883 49.0
26.419838420 58.0
26.453260958 49.0
26.486683495 39.0
26.520106032 53.0
26.553528569 37.0
26.586951107 58.0
26.620373644 41.0
26.653796181 47.0
26.687218718 39.0
26.720641256 51.0
26.754063793 49.0
26.787486330 55.0
26.820908867 48.0
26.854331405 47.0
26.887753942 48.0
26.921176479 48.0
26.954599016 43.0
26.988021554 43.0
27.021444091 49.0
27.054866628 41.0
27.088289165 47.0
27.121711703 49.0
27.155134240 41.0
27.188556777 45.0
27.221979314 39.0
27.255401852 41.0
27.288824389 34.0
27.322246926 45.0
27.355669463 38.0
27.389092000 43.0
27.422514538 38.0
27.455937075 52.0
27.489359612 37.0
27.522782149 45.0
27.556204687 41.0
27.589627224 44.0
27.623049761 43.0
27.656472298 47.0
27.689894836 46.0
27.723317373 37.0
27.756739910 34.0
27.790162447 43.0
27.823584985 43.0
27.857007522 45.0
27.890430059 44.0
27.923852596 40.0
27.957275134 43.0
27.990697671 45.0
28.024120208 31.0
28.057542745 38.0
28.090965283 43.0
28.124387820 40.0
28.157810357 38.0
28.191232894 40.0
28.224655432 43.0
28.258077969 43.0
28.291500506 36.0
28.324923043 45.0
28.358345580 48.0
28.391768118 37.0
28.425190655 37.0
28.458613192 33.0
28.492035729 36.0
28.525458267 44.0
28.558880804 39.0
28.592303341 49.0
28.625725878 27.0
28.659148416 50.0
28.692570953 38.0
28.725993490 48.0
28.759416027 35.0
28.792838565 46.0
28.826261102 31.0
28.859683639 29.0
28.893106176 32.0
28.926528714 39.0
28.959951251 32.0
28.993373788 30.0
29.026796325 30.0
29.060218863 29.0
29.093641400 35.0
29.127063937 36.0
29.160486474 38.0
29.193909012 35.0
29.227331549 39.0
29.260754086 36.0
29.294176623 34.0
29.327599161 38.0
29.361021698 36.0
29.394444235 40.0
29.427866772 32.0
29.461289309 35.0
29.494711847 43.0
29.528134384 41.0
29.561556921 27.0
29.594979458 35.0
29.628401996 27.0
29.661824533 44.0
29.695247070 35.0
29.728669607 37.0
29.762092145 30.0
29.795514682 31.0
29.828937219 47.0
29.862359756 38.0
29.895782294 39.0
29.929204831 34.0
29.962627368 49.0
29.996049905 35.0
30.029472443 44.0
30.062894980 39.0
30.096317517 45.0
30.129740054 39.0
30.163162592 40.0
30.196585129 31.0
30.230007666 25.0
30.263430203 41.0
30.296852741 39.0
30.330275278 25.0
30.363697815 36.0
30.397120352 41.0
30.430542889 43.0
30.463965427 38.0
30.497387964 39.0
30.530810501 32.0
30.564233038 35.0
30.597655576 54.0
30.631078113 33.0
30.664500650 37.0
30.697923187 37.0
30.731345725 27.0
30.764768262 31.0
30.798190799 32.0
30.831613336 18.0
30.865035874 31.0
30.898458411 36.0
30.931880948 37.0
30.965303485 43.0
30.998726023 35.0
31.032148560 37.0
31.065571097 34.0
31.098993634 38.0
31.132416172 29.0
31.165838709 37.0
31.199261246 38.0
31.232683783 48.0
31.266106321 27.0
31.299528858 44.0
31.332951395 26.0
31.366373932 32.0
31.399796470 25.0
31.433219007 36.0
31.466641544 40.0
31.500064081 41.0
31.533486618 29.0
31.566909156 37.0
31.600331693 41.0
31.633754230 46.0
31.667176767 30.0
31.700599305 39.0
31.734021842 40.0
31.767444379 35.0
31.800866916 32.0
31.834289454 35.0
31.867711991 30.0
31.901134528 31.0
31.934557065 34.0
31.967979603 38.0
32.001402140 38.0
32.034824677 34.0
32.068247214 27.0
32.101669752 48.0
32.135092289 39.0
32.168514826 40.0
32.201937363 40.0
32.235359901 43.0
32.268782438 39.0
32.302204975 38.0
32.335627512 32.0
32.369050050 37.0
32.402472587 39.0
32.435895124 47.0
32.469317661 31.0
32.502740198 43.0
32.536162736 46.0
32.569585273 43.0
32.603007810 50.0
32.636430347 46.0
32.669852885 52.0
32.703275422 35.0
32.736697959 50.0
32.770120496 50.0
32.803543034 44.0
32.836965571 55.0
32.870388108 52.0
32.903810645 69.0
32.937233183 50.0
32.970655720 76.0
33.004078257 181.0
33.037500794 1187.0
33.070923332 488.0
33.104345869 296.0
33.137768406 666.0
33.171190943 131.0
33.204613481 59.0
33.238036018 73.0
33.271458555 65.0
33.304881092 54.0
33.338303630 44.0
33.371726167 53.0
33.405148704 50.0
33.438571241 41.0
33.471993779 41.0
33.505416316 43.0
33.538838853 43.0
33.572261390 39.0
33.605683927 45.0
33.639106465 34.0
33.672529002 43.0
33.705951539 35.0
33.739374076 49.0
33.772796614 37.0
33.806219151 43.0
33.839641688 52.0
33.873064225 61.0
33.906486763 37.0
33.939909300 48.0
33.973331837 43.0
34.006754374 47.0
34.040176912 33.0
34.073599449 48.0
34.107021986 47.0
34.140444523 34.0
34.173867061 34.0
34.207289598 40.0
34.240712135 38.0
34.274134672 31.0
34.307557210 47.0
34.340979747 41.0
34.374402284 53.0
34.407824821 49.0
34.441247359 40.0
34.474669896 47.0
34.508092433 49.0
34.541514970 41.0
34.574937507 48.0
34.608360045 46.0
34.641782582 44.0
34.675205119 50.0
34.708627656 38.0
34.742050194 36.0
34.775472731 32.0
34.808895268 34.0
34.842317805 37.0
34.875740343 32.0
34.909162880 32.0
34.942585417 31.0
34.976007954 38.0
35.009430492 39.0
35.042853029 41.0
35.076275566 39.0
35.109698103 39.0
35.143120641 57.0
35.176543178 53.0
35.209965715 55.0
35.243388252 41.0
35.276810790 59.0
35.310233327 49.0
35.343655864 32.0
35.377078401 48.0
35.410500939 34.0
35.443923476 33.0
35.477346013 35.0
35.510768550 38.0
35.544191088 33.0
35.577613625 29.0
35.611036162 34.0
35.644458699 33.0
35.677881236 45.0
35.711303774 29.0
35.744726311 36.0
35.778148848 32.0
35.811571385 37.0
35.844993923 45.0
35.878416460 62.0
35.911838997 36.0
35.945261534 48.0
35.978684072 44.0
36.012106609 48.0
36.045529146 46.0
36.078951683 43.0
36.112374221 36.0
36.145796758 30.0
36.179219295 23.0
36.212641832 26.0
36.246064370 31.0
36.279486907 34.0
36.312909444 35.0
36.346331981 33.0
36.379754519 35.0
36.413177056 30.0
36.446599593 23.0
36.480022130 30.0
36.513444668 35.0
36.546867205 26.0
36.580289742 35.0
36.613712279 46.0
36.647134816 31.0
36.680557354 40.0
36.713979891 31.0
36.747402428 35.0
36.780824965 41.0
36.814247503 43.0
36.847670040 37.0
36.881092577 32.0
36.914515114 33.0
36.947937652 27.0
36.981360189 30.0
37.014782726 38.0
37.048205263 29.0
37.081627801 33.0
37.115050338 33.0
37.148472875 21.0
37.181895412 25.0
37.215317950 27.0
37.248740487 30.0
37.282163024 29.0
37.315585561 29.0
37.349008099 34.0
37.382430636 24.0
37.415853173 25.0
37.449275710 23.0
37.482698248 37.0
37.516120785 44.0
37.549543322 36.0
37.582965859 31.0
37.616388397 29.0
37.649810934 20.0
37.683233471 37.0
37.716656008 33.0
37.750078545 34.0
37.783501083 27.0
37.816923620 27.0
37.850346157 38.0
37.883768694 29.0
37.917191232 23.0
37.950613769 24.0
37.984036306 35.0
38.017458843 26.0
38.050881381 32.0
38.084303918 32.0
38.117726455 40.0
38.151148992 47.0
38.184571530 41.0
38.217994067 32.0
38.251416604 31.0
38.284839141 32.0
38.318261679 26.0
38.351684216 38.0
38.385106753 36.0
38.418529290 39.0
38.451951828 49.0
38.485374365 52.0
38.518796902 49.0
38.552219439 36.0
38.585641977 48.0
38.619064514 43.0
38.652487051 48.0
38.685909588 46.0
38.719332125 32.0
38.752754663 51.0
38.786177200 40.0
38.819599737 30.0
38.853022274 43.0
38.886444812 47.0
38.919867349 54.0
38.953289886 58.0
38.986712423 60.0
39.020134961 66.0
39.053557498 74.0
39.086980035 79.0
39.120402572 94.0
39.153825110 93.0
39.187247647 76.0
39.220670184 77.0
39.254092721 82.0
39.287515259 80.0
39.320937796 69.0
39.354360333 55.0
39.387782870 74.0
39.421205408 60.0
39.454627945 40.0
39.488050482 64.0
39.521473019 62.0
39.554895557 75.0
39.588318094 67.0
39.621740631 109.0
39.655163168 115.0
39.688585706 118.0
39.722008243 149.0
39.755430780 204.0
39.788853317 170.0
39.822275854 194.0
39.855698392 177.0
39.889120929 165.0
39.922543466 166.0
39.955966003 147.0
39.989388541 138.0
40.022811078 118.0
40.056233615 94.0
40.089656152 116.0
40.123078690 97.0
40.156501227 97.0
40.189923764 109.0
40.223346301 128.0
40.256768839 159.0
40.290191376 167.0
40.323613913 193.0
40.357036450 207.0
40.390458988 261.0
40.423881525 324.0
40.457304062 366.0
40.490726599 372.0
40.524149137 384.0
40.557571674 412.0
40.590994211 349.0
40.624416748 304.0
40.657839286 286.0
40.691261823 246.0
40.724684360 254.0
40.758106897 190.0
40.791529434 211.0
40.824951972 200.0
40.858374509 250.0
40.891797046 250.0
40.925219583 301.0
40.958642121 333.0
40.992064658 411.0
41.025487195 472.0
41.058909732 586.0
41.092332270 697.0
41.125754807 803.0
41.159177344 837.0
41.192599881 881.0
41.226022419 974.0
41.259444956 811.0
41.292867493 758.0
41.326290030 742.0
41.359712568 678.0
41.393135105 601.0
41.426557642 560.0
41.459980179 531.0
41.493402717 494.0
41.526825254 554.0
41.560247791 637.0
41.593670328 755.0
41.627092866 894.0
41.660515403 1301.0
41.693937940 1487.0
41.727360477 1888.0
41.760783015 2311.0
41.794205552 2808.0
41.827628089 3279.0
41.861050626 3559.0
41.894473163 3735.0
41.927895701 3790.0
41.961318238 3832.0
41.994740775 3631.0
42.028163312 3479.0
42.061585850 3268.0
42.095008387 3201.0
42.128430924 3235.0
42.161853461 3275.0
42.195275999 3305.0
42.228698536 3658.0
42.262121073 3933.0
42.295543610 4365.0
42.328966148 5057.0
42.362388685 5607.0
42.395811222 6461.0
42.429233759 6928.0
42.462656297 7418.0
42.496078834 7701.0
42.529501371 7978.0
42.562923908 7162.0
42.596346446 6810.0
42.629768983 6028.0
42.663191520 5270.0
42.696614057 4245.0
42.730036595 3336.0
42.763459132 2874.0
42.796881669 2386.0
42.830304206 1893.0
42.863726743 1539.0
42.897149281 1308.0
42.930571818 1077.0
42.963994355 974.0
42.997416892 825.0
43.030839430 714.0
43.064261967 628.0
43.097684504 507.0
43.131107041 505.0
43.164529579 434.0
43.197952116 416.0
43.231374653 372.0
43.264797190 369.0
43.298219728 315.0
43.331642265 310.0
43.365064802 271.0
43.398487339 272.0
43.431909877 229.0
43.465332414 208.0
43.498754951 204.0
43.532177488 228.0
43.565600026 177.0
43.599022563 175.0
43.632445100 145.0
43.665867637 134.0
43.699290175 131.0
43.732712712 143.0
43.766135249 119.0
43.799557786 106.0
43.832980324 123.0
43.866402861 134.0
43.899825398 95.0
43.933247935 103.0
43.966670472 86.0
44.000093010 92.0
44.033515547 74.0
44.066938084 74.0
44.100360621 89.0
44.133783159 75.0
44.167205696 83.0
44.200628233 76.0
44.234050770 85.0
44.267473308 57.0
44.300895845 60.0
44.334318382 51.0
44.367740919 57.0
44.401163457 53.0
44.434585994 73.0
44.468008531 61.0
44.501431068 43.0
44.534853606 55.0
44.568276143 52.0
44.601698680 61.0
44.635121217 49.0
44.668543755 38.0
44.701966292 37.0
44.735388829 43.0
44.768811366 45.0
44.802233904 39.0
44.835656441 33.0
44.869078978 39.0
44.902501515 29.0
44.935924052 27.0
44.969346590 41.0
45.002769127 44.0
45.036191664 40.0
45.069614201 43.0
45.103036739 40.0
45.136459276 33.0
45.169881813 36.0
45.203304350 32.0
45.236726888 30.0
45.270149425 47.0
45.303571962 30.0
45.336994499 29.0
45.370417037 30.0
45.403839574 34.0
45.437262111 22.0
45.470684648 19.0
45.504107186 26.0
45.537529723 21.0
45.570952260 30.0
45.604374797 25.0
45.637797335 24.0
45.671219872 21.0
45.704642409 25.0
45.738064946 25.0
45.771487484 36.0
45.804910021 13.0
45.838332558 20.0
45.871755095 22.0
45.905177633 23.0
45.938600170 23.0
45.972022707 23.0
46.005445244 17.0
46.038867781 24.0
46.072290319 21.0
46.105712856 26.0
46.139135393 20.0
46.172557930 19.0
46.205980468 13.0
46.239403005 18.0
46.272825542 16.0
46.306248079 23.0
46.339670617 24.0
46.373093154 24.0
46.406515691 22.0
46.439938228 23.0
46.473360766 25.0
46.506783303 22.0
46.540205840 27.0
46.573628377 17.0
46.607050915 16.0
46.640473452 20.0
46.673895989 18.0
46.707318526 22.0
46.740741064 12.0
46.774163601 7.0
46.807586138 16.0
46.841008675 21.0
46.874431213 21.0
46.907853750 15.0
46.941276287 18.0
46.974698824 18.0
47.008121362 13.0
47.041543899 11.0
47.074966436 10.0
47.108388973 18.0
47.141811510 15.0
47.175234048 31.0
47.208656585 12.0
47.242079122 9.0
47.275501659 16.0
47.308924197 18.0
47.342346734 18.0
47.375769271 18.0
47.409191808 13.0
47.442614346 15.0
47.476036883 9.0
47.509459420 10.0
47.542881957 13.0
47.576304495 20.0
47.609727032 23.0
47.643149569 7.0
47.676572106 9.0
47.709994644 13.0
47.743417181 10.0
47.776839718 12.0
47.810262255 18.0
47.843684793 15.0
47.877107330 16.0
47.910529867 13.0
47.943952404 12.0
47.977374942 10.0
48.010797479 13.0
48.044220016 15.0
48.077642553 10.0
48.111065090 13.0
48.144487628 12.0
48.177910165 9.0
48.211332702 15.0
48.244755239 12.0
48.278177777 16.0
48.311600314 11.0
48.345022851 16.0
48.378445388 20.0
48.411867926 12.0
48.445290463 12.0
48.478713000 20.0
48.512135537 15.0
48.545558075 11.0
48.578980612 5.0
48.612403149 12.0
48.645825686 12.0
48.679248224 11.0
48.712670761 7.0
48.746093298 12.0
48.779515835 16.0
48.812938373 13.0
48.846360910 13.0
48.879783447 7.0
48.913205984 11.0
48.946628522 11.0
48.980051059 9.0
49.013473596 10.0
49.046896133 12.0
49.080318671 10.0
49.113741208 4.0
49.147163745 11.0
49.180586282 10.0
49.214008819 8.0
49.247431357 6.0
49.280853894 15.0
49.314276431 12.0
49.347698968 9.0
49.381121506 7.0
49.414544043 8.0
49.447966580 9.0
49.481389117 15.0
49.514811655 5.0
49.548234192 16.0
49.581656729 7.0
49.615079266 7.0
49.648501804 10.0
49.681924341 11.0
49.715346878 7.0
49.748769415 3.0
49.782191953 16.0
49.815614490 7.0
49.849037027 9.0
49.882459564 9.0
49.915882102 15.0
49.949304639 13.0
49.982727176 10.0
50.016149713 10.0
50.049572251 22.0
50.082994788 11.0
50.116417325 4.0
50.149839862 6.0
50.183262399 10.0
50.216684937 17.0
50.250107474 8.0
50.283530011 8.0
50.316952548 11.0
50.350375086 12.0
50.383797623 13.0
50.417220160 9.0
50.450642697 9.0
50.484065235 5.0
50.517487772 15.0
50.550910309 12.0
50.584332846 16.0
50.617755384 11.0
50.651177921 5.0
50.684600458 11.0
50.718022995 9.0
50.751445533 13.0
50.784868070 7.0
50.818290607 12.0
50.851713144 15.0
50.885135682 3.0
50.918558219 11.0
50.951980756 15.0
50.985403293 7.0
51.018825831 15.0
51.052248368 8.0
51.085670905 11.0
51.119093442 8.0
51.152515980 13.0
51.185938517 6.0
51.219361054 11.0
51.252783591 11.0
51.286206128 10.0
51.319628666 6.0
51.353051203 12.0
51.386473740 6.0
51.419896277 4.0
51.453318815 9.0
51.486741352 4.0
51.520163889 10.0
51.553586426 10.0
51.587008964 7.0
51.620431501 7.0
51.653854038 10.0
51.687276575 13.0
51.720699113 15.0
51.754121650 10.0
51.787544187 13.0
51.820966724 13.0
51.854389262 15.0
51.887811799 10.0
51.921234336 4.0
51.954656873 9.0
51.988079411 13.0
52.021501948 8.0
52.054924485 17.0
52.088347022 9.0
52.121769560 6.0
52.155192097 9.0
52.188614634 9.0
52.222037171 13.0
52.255459708 9.0
52.288882246 8.0
52.322304783 8.0
52.355727320 10.0
52.389149857 9.0
52.422572395 11.0
52.455994932 9.0
52.489417469 10.0
52.522840006 4.0
52.556262544 17.0
52.589685081 6.0
52.623107618 15.0
52.656530155 6.0
52.689952693 17.0
52.723375230 8.0
52.756797767 11.0
52.790220304 12.0
52.823642842 8.0
52.857065379 18.0
52.890487916 11.0
52.923910453 17.0
52.957332991 7.0
52.990755528 6.0
53.024178065 17.0
53.057600602 12.0
53.091023140 10.0
53.124445677 7.0
53.157868214 10.0
53.191290751 11.0
53.224713289 13.0
53.258135826 11.0
53.291558363 12.0
53.324980900 5.0
53.358403437 12.0
53.391825975 8.0
53.425248512 7.0
53.458671049 9.0
53.492093586 11.0
53.525516124 12.0
53.558938661 7.0
53.592361198 6.0
53.625783735 16.0
53.659206273 10.0
53.692628810 7.0
53.726051347 8.0
53.759473884 3.0
53.792896422 9.0
53.826318959 6.0
53.859741496 13.0
53.893164033 11.0
53.926586571 10.0
53.960009108 4.0
53.993431645 7.0
54.026854182 10.0
54.060276720 6.0
54.093699257 9.0
54.127121794 10.0
54.160544331 6.0
54.193966869 1.0
54.227389406 4.0
54.260811943 8.0
54.294234480 6.0
54.327657017 9.0
54.361079555 16.0
54.394502092 10.0
54.427924629 10.0
54.461347166 5.0
54.494769704 8.0
54.528192241 7.0
54.561614778 6.0
54.595037315 9.0
54.628459853 9.0
54.661882390 12.0
54.695304927 10.0
54.728727464 7.0
54.762150002 5.0
54.795572539 8.0
54.828995076 16.0
54.862417613 8.0
54.895840151 12.0
54.929262688 5.0
54.962685225 10.0
54.996107762 9.0
55.029530300 7.0
55.062952837 7.0
55.096375374 11.0
55.129797911 8.0
55.163220449 5.0
55.196642986 8.0
55.230065523 13.0
55.263488060 11.0
55.296910598 9.0
55.330333135 3.0
55.363755672 12.0
55.397178209 9.0
55.430600746 15.0
55.464023284 10.0
55.497445821 9.0
55.530868358 8.0
55.564290895 8.0
55.597713433 10.0
55.631135970 11.0
55.664558507 11.0
55.697981044 4.0
55.731403582 10.0
55.764826119 3.0
55.798248656 11.0
55.831671193 11.0
55.865093731 13.0
55.898516268 8.0
55.931938805 6.0
55.965361342 6.0
55.998783880 4.0
56.032206417 10.0
56.065628954 10.0
56.099051491 8.0
56.132474029 10.0
56.165896566 7.0
56.199319103 8.0
56.232741640 10.0
56.266164178 9.0
56.299586715 4.0
56.333009252 19.0
56.366431789 8.0
56.399854326 3.0
56.433276864 7.0
56.466699401 13.0
56.500121938 13.0
56.533544475 8.0
56.566967013 10.0
56.600389550 12.0
56.633812087 4.0
56.667234624 6.0
56.700657162 4.0
56.734079699 10.0
56.767502236 6.0
56.800924773 5.0
56.834347311 6.0
56.867769848 6.0
56.901192385 5.0
56.934614922 6.0
56.968037460 7.0
57.001459997 6.0
57.034882534 10.0
57.068305071 6.0
57.101727609 9.0
57.135150146 11.0
57.168572683 9.0
57.201995220 8.0
57.235417758 5.0
57.268840295 8.0
57.302262832 10.0
57.335685369 10.0
57.369107907 8.0
57.402530444 5.0
57.435952981 5.0
57.469375518 17.0
57.502798055 11.0
57.536220593 13.0
57.569643130 9.0
57.603065667 8.0
57.636488204 3.0
57.669910742 5.0
57.703333279 6.0
57.736755816 6.0
57.770178353 7.0
57.803600891 13.0
57.837023428 11.0
57.870445965 10.0
57.903868502 7.0
57.937291040 10.0
57.970713577 13.0
58.004136114 9.0
58.037558651 8.0
58.070981189 8.0
58.104403726 12.0
58.137826263 9.0
58.171248800 6.0
58.204671338 5.0
58.238093875 11.0
58.271516412 9.0
58.304938949 13.0
58.338361487 11.0
58.371784024 9.0
58.405206561 5.0
58.438629098 9.0
58.472051635 12.0
58.505474173 12.0
58.538896710 12.0
58.572319247 4.0
58.605741784 12.0
58.639164322 11.0
58.672586859 12.0
58.706009396 4.0
58.739431933 12.0
58.772854471 7.0
58.806277008 13.0
58.839699545 9.0
58.873122082 11.0
58.906544620 8.0
58.939967157 10.0
58.973389694 11.0
59.006812231 5.0
59.040234769 7.0
59.073657306 8.0
59.107079843 10.0
59.140502380 9.0
59.173924918 10.0
59.207347455 10.0
59.240769992 11.0
59.274192529 11.0
59.307615067 6.0
59.341037604 8.0
59.374460141 7.0
59.407882678 8.0
59.441305216 7.0
59.474727753 4.0
59.508150290 8.0
59.541572827 8.0
59.574995364 16.0
59.608417902 5.0
59.641840439 6.0
59.675262976 8.0
59.708685513 6.0
59.742108051 7.0
59.775530588 7.0
59.808953125 10.0
59.842375662 6.0
59.875798200 5.0
59.909220737 7.0
59.942643274 9.0
59.976065811 4.0
60.009488349 8.0
60.042910886 8.0
60.076333423 5.0
60.109755960 12.0
60.143178498 8.0
60.176601035 10.0
60.210023572 7.0
60.243446109 16.0
60.276868647 9.0
60.310291184 10.0
60.343713721 8.0
60.377136258 11.0
60.410558796 8.0
60.443981333 9.0
60.477403870 12.0
60.510826407 9.0
60.544248944 7.0
60.577671482 7.0
60.611094019 11.0
60.644516556 3.0
60.677939093 8.0
60.711361631 7.0
60.744784168 6.0
60.778206705 13.0
60.811629242 6.0
60.845051780 10.0
60.878474317 8.0
60.911896854 8.0
60.945319391 9.0
60.978741929 11.0
61.012164466 4.0
61.045587003 9.0
61.079009540 7.0
61.112432078 11.0
61.145854615 10.0
61.179277152 5.0
61.212699689 11.0
61.246122227 7.0
61.279544764 11.0
61.312967301 11.0
61.346389838 7.0
61.379812376 8.0
61.413234913 7.0
61.446657450 9.0
61.480079987 6.0
61.513502525 13.0
61.546925062 15.0
61.580347599 13.0
61.613770136 7.0
61.647192673 8.0
61.680615211 16.0
61.714037748 10.0
61.747460285 7.0
61.780882822 9.0
61.814305360 8.0
61.847727897 11.0
61.881150434 8.0
61.914572971 17.0
61.947995509 8.0
61.981418046 11.0
62.014840583 17.0
62.048263120 10.0
62.081685658 11.0
62.115108195 10.0
62.148530732 20.0
62.181953269 8.0
62.215375807 20.0
62.248798344 9.0
62.282220881 10.0
62.315643418 9.0
62.349065956 19.0
62.382488493 7.0
62.415911030 11.0
62.449333567 6.0
62.482756105 10.0
62.516178642 10.0
62.549601179 11.0
62.583023716 15.0
62.616446253 8.0
62.649868791 11.0
62.683291328 7.0
62.716713865 23.0
62.750136402 2.0
62.783558940 7.0
62.816981477 4.0
62.850404014 9.0
62.883826551 7.0
62.917249089 9.0
62.950671626 16.0
62.984094163 10.0
63.017516700 10.0
63.050939238 10.0
63.084361775 10.0
63.117784312 18.0
63.151206849 11.0
63.184629387 11.0
63.218051924 12.0
63.251474461 13.0
63.284896998 9.0
63.318319536 4.0
63.351742073 13.0
63.385164610 17.0
63.418587147 5.0
63.452009685 16.0
63.485432222 11.0
63.518854759 10.0
63.552277296 13.0
63.585699834 15.0
63.619122371 11.0
63.652544908 18.0
63.685967445 11.0
63.719389982 7.0
63.752812520 18.0
63.786235057 11.0
63.819657594 18.0
63.853080131 13.0
63.886502669 13.0
63.919925206 23.0
63.953347743 13.0
63.986770280 9.0
64.020192818 23.0
64.053615355 18.0
64.087037892 13.0
64.120460429 6.0
64.153882967 11.0
64.187305504 6.0
64.220728041 20.0
64.254150578 20.0
64.287573116 10.0
64.320995653 15.0
64.354418190 11.0
64.387840727 17.0
64.421263265 10.0
64.454685802 21.0
64.488108339 13.0
64.521530876 15.0
64.554953414 10.0
64.588375951 15.0
64.621798488 19.0
64.655221025 13.0
64.688643562 15.0
64.722066100 12.0
64.755488637 13.0
64.788911174 23.0
64.822333711 15.0
64.855756249 21.0
64.889178786 12.0
64.922601323 13.0
64.956023860 16.0
64.989446398 20.0
65.022868935 18.0
65.056291472 20.0
65.089714009 19.0
65.123136547 17.0
65.156559084 15.0
65.189981621 19.0
65.223404158 15.0
65.256826696 21.0
65.290249233 15.0
65.323671770 22.0
65.357094307 12.0
65.390516845 12.0
65.423939382 15.0
65.457361919 27.0
65.490784456 21.0
65.524206994 19.0
65.557629531 20.0
65.591052068 18.0
65.624474605 17.0
65.657897143 18.0
65.691319680 23.0
65.724742217 15.0
65.758164754 24.0
65.791587291 30.0
65.825009829 24.0
65.858432366 21.0
65.891854903 26.0
65.925277440 16.0
65.958699978 21.0
65.992122515 25.0
66.025545052 24.0
66.058967589 19.0
66.092390127 29.0
66.125812664 25.0
66.159235201 36.0
66.192657738 23.0
66.226080276 22.0
66.259502813 23.0
66.292925350 21.0
66.326347887 23.0
66.359770425 20.0
66.393192962 33.0
66.426615499 31.0
66.460038036 24.0
66.493460574 23.0
66.526883111 39.0
66.560305648 46.0
66.593728185 44.0
66.627150723 49.0
66.660573260 51.0
66.693995797 38.0
66.727418334 47.0
66.760840871 34.0
66.794263409 41.0
66.827685946 33.0
66.861108483 54.0
66.894531020 39.0
66.927953558 37.0
66.961376095 49.0
66.994798632 37.0
67.028221169 53.0
67.061643707 45.0
67.095066244 50.0
67.128488781 53.0
67.161911318 48.0
67.195333856 52.0
67.228756393 64.0
67.262178930 60.0
67.295601467 58.0
67.329024005 44.0
67.362446542 55.0
67.395869079 63.0
67.429291616 64.0
67.462714154 68.0
67.496136691 59.0
67.529559228 59.0
67.562981765 74.0
67.596404303 64.0
67.629826840 58.0
67.663249377 75.0
67.696671914 52.0
67.730094452 80.0
67.763516989 74.0
67.796939526 66.0
67.830362063 64.0
67.863784600 63.0
67.897207138 94.0
67.930629675 69.0
67.964052212 66.0
67.997474749 68.0
68.030897287 68.0
68.064319824 81.0
68.097742361 76.0
68.131164898 113.0
68.164587436 95.0
68.198009973 91.0
68.231432510 69.0
68.264855047 110.0
68.298277585 124.0
68.331700122 107.0
68.365122659 105.0
68.398545196 133.0
68.431967734 113.0
68.465390271 94.0
68.498812808 153.0
68.532235345 142.0
68.565657883 121.0
68.599080420 134.0
68.632502957 180.0
68.665925494 169.0
68.699348032 184.0
68.732770569 208.0
68.766193106 255.0
68.799615643 296.0
68.833038180 406.0
68.866460718 494.0
68.899883255 530.0
68.933305792 471.0
68.966728329 481.0
69.000150867 564.0
69.033573404 750.0
69.066995941 1147.0
69.100418478 1931.0
69.133841016 3981.0
69.167263553 15570.0
69.200686090 55934.0
69.234108627 21466.0
69.267531165 5845.0
69.300953702 2933.0
69.334376239 3528.0
69.367798776 11644.0
69.401221314 28627.0
69.434643851 10435.0
69.468066388 2916.0
69.501488925 1444.0
69.534911463 918.0
69.568334000 651.0
69.601756537 535.0
69.635179074 457.0
69.668601612 374.0
69.702024149 322.0
69.735446686 293.0
69.768869223 288.0
69.802291761 232.0
69.835714298 256.0
69.869136835 195.0
69.902559372 186.0
69.935981909 179.0
69.969404447 175.0
70.002826984 180.0
70.036249521 151.0
70.069672058 166.0
70.103094596 153.0
70.136517133 132.0
70.169939670 118.0
70.203362207 150.0
70.236784745 122.0
70.270207282 120.0
70.303629819 120.0
70.337052356 109.0
70.370474894 128.0
70.403897431 111.0
70.437319968 122.0
70.470742505 108.0
70.504165043 101.0
70.537587580 78.0
70.571010117 107.0
70.604432654 96.0
70.637855192 95.0
70.671277729 74.0
70.704700266 103.0
70.738122803 96.0
70.771545341 86.0
70.804967878 79.0
70.838390415 73.0
70.871812952 83.0
70.905235489 97.0
70.938658027 58.0
70.972080564 76.0
71.005503101 81.0
71.038925638 60.0
71.072348176 58.0
71.105770713 69.0
71.139193250 75.0
71.172615787 58.0
71.206038325 66.0
71.239460862 60.0
71.272883399 62.0
71.306305936 62.0
71.339728474 57.0
71.373151011 68.0
71.406573548 61.0
71.439996085 55.0
71.473418623 60.0
71.506841160 58.0
71.540263697 51.0
71.573686234 46.0
71.607108772 39.0
71.640531309 49.0
71.673953846 57.0
71.707376383 35.0
71.740798921 43.0
71.774221458 51.0
71.807643995 44.0
71.841066532 40.0
71.874489070 49.0
71.907911607 37.0
71.941334144 33.0
71.974756681 41.0
72.008179218 39.0
72.041601756 40.0
72.075024293 36.0
72.108446830 34.0
72.141869367 26.0
72.175291905 37.0
72.208714442 40.0
72.242136979 33.0
72.275559516 27.0
72.308982054 41.0
72.342404591 33.0
72.375827128 25.0
72.409249665 34.0
72.442672203 38.0
72.476094740 34.0
72.509517277 26.0
72.542939814 32.0
72.576362352 27.0
72.609784889 24.0
72.643207426 35.0
72.676629963 30.0
72.710052501 27.0
72.743475038 31.0
72.776897575 26.0
72.810320112 23.0
72.843742650 27.0
72.877165187 20.0
72.910587724 19.0
72.944010261 20.0
72.977432798 22.0
73.010855336 22.0
73.044277873 23.0
73.077700410 24.0
73.111122947 16.0
73.144545485 15.0
73.177968022 22.0
73.211390559 29.0
73.244813096 29.0
73.278235634 21.0
73.311658171 20.0
73.345080708 22.0
73.378503245 24.0
73.411925783 19.0
73.445348320 13.0
73.478770857 15.0
73.512193394 24.0
73.545615932 24.0
73.579038469 17.0
73.612461006 19.0
73.645883543 16.0
73.679306081 17.0
73.712728618 18.0
73.746151155 13.0
73.779573692 21.0
73.812996230 21.0
73.846418767 21.0
73.879841304 17.0
73.913263841 16.0
73.946686379 24.0
73.980108916 20.0
74.013531453 16.0
74.046953990 18.0
74.080376527 25.0
74.113799065 12.0
74.147221602 11.0
74.180644139 13.0
74.214066676 18.0
74.247489214 11.0
74.280911751 10.0
74.314334288 12.0
74.347756825 12.0
74.381179363 9.0
74.414601900 11.0
74.448024437 18.0
74.481446974 17.0
74.514869512 15.0
74.548292049 11.0
74.581714586 10.0
74.615137123 11.0
74.648559661 16.0
74.681982198 20.0
74.715404735 12.0
74.748827272 7.0
74.782249810 9.0
74.815672347 15.0
74.849094884 11.0
74.882517421 16.0
74.915939959 12.0
74.949362496 15.0
74.982785033 15.0
75.016207570 9.0
75.049630108 11.0
75.083052645 13.0
75.116475182 15.0
75.149897719 13.0
75.183320256 17.0
75.216742794 13.0
75.250165331 12.0
75.283587868 11.0
75.317010405 13.0
75.350432943 10.0
75.383855480 21.0
75.417278017 19.0
75.450700554 17.0
75.484123092 11.0
75.517545629 11.0
75.550968166 18.0
75.584390703 11.0
75.617813241 15.0
75.651235778 10.0
75.684658315 18.0
75.718080852 11.0
75.751503390 11.0
75.784925927 16.0
75.818348464 12.0
75.851771001 16.0
75.885193539 13.0
75.918616076 11.0
75.952038613 10.0
75.985461150 12.0
76.018883688 15.0
76.052306225 13.0
76.085728762 9.0
76.119151299 18.0
76.152573836 15.0
76.185996374 11.0
76.219418911 13.0
76.252841448 10.0
76.286263985 12.0
76.319686523 9.0
76.353109060 16.0
76.386531597 10.0
76.419954134 11.0
76.453376672 13.0
76.486799209 10.0
76.520221746 10.0
76.553644283 15.0
76.587066821 9.0
76.620489358 6.0
76.653911895 15.0
76.687334432 13.0
76.720756970 13.0
76.754179507 4.0
76.787602044 5.0
76.821024581 10.0
76.854447119 16.0
76.887869656 13.0
76.921292193 12.0
76.954714730 9.0
76.988137268 5.0
77.021559805 7.0
77.054982342 11.0
77.088404879 5.0
77.121827417 13.0
77.155249954 21.0
77.188672491 7.0
77.222095028 8.0
77.255517565 9.0
77.288940103 7.0
77.322362640 18.0
77.355785177 11.0
77.389207714 11.0
77.422630252 9.0
77.456052789 7.0
77.489475326 10.0
77.522897863 13.0
77.556320401 12.0
77.589742938 7.0
77.623165475 4.0
77.656588012 5.0
77.690010550 8.0
77.723433087 7.0
77.756855624 8.0
77.790278161 7.0
77.823700699 10.0
77.857123236 8.0
77.890545773 9.0
77.923968310 11.0
77.957390848 7.0
77.990813385 5.0
78.024235922 6.0
78.057658459 8.0
78.091080997 8.0
78.124503534 5.0
78.157926071 11.0
78.191348608 13.0
78.224771145 5.0
78.258193683 10.0
78.291616220 11.0
78.325038757 9.0
78.358461294 8.0
78.391883832 15.0
78.425306369 8.0
78.458728906 11.0
78.492151443 9.0
78.525573981 7.0
78.558996518 9.0
78.592419055 16.0
78.625841592 6.0
78.659264130 12.0
78.692686667 13.0
78.726109204 8.0
78.759531741 6.0
78.792954279 7.0
78.826376816 10.0
78.859799353 4.0
78.893221890 6.0
78.926644428 7.0
78.960066965 11.0
78.993489502 3.0
79.026912039 9.0
79.060334577 12.0
79.093757114 6.0
79.127179651 8.0
79.160602188 7.0
79.194024726 9.0
79.227447263 7.0
79.260869800 7.0
79.294292337 9.0
79.327714874 4.0
79.361137412 11.0
79.394559949 11.0
79.427982486 9.0
79.461405023 6.0
79.494827561 6.0
79.528250098 15.0
79.561672635 12.0
79.595095172 8.0
79.628517710 5.0
79.661940247 8.0
79.695362784 10.0
79.728785321 10.0
79.762207859 6.0
79.795630396 6.0
79.829052933 12.0
79.862475470 12.0
79.895898008 10.0
79.929320545 7.0
79.962743082 4.0
79.996165619 7.0
80.029588157 5.0
80.063010694 8.0
80.096433231 19.0
80.129855768 6.0
80.163278306 6.0
80.196700843 10.0
80.230123380 6.0
80.263545917 8.0
80.296968454 6.0
80.330390992 5.0
80.363813529 12.0
80.397236066 2.0
80.430658603 6.0
80.464081141 13.0
80.497503678 8.0
80.530926215 11.0
80.564348752 11.0
80.597771290 10.0
80.631193827 10.0
80.664616364 10.0
80.698038901 7.0
80.731461439 8.0
80.764883976 3.0
80.798306513 8.0
80.831729050 7.0
80.865151588 5.0
80.898574125 7.0
80.931996662 6.0
80.965419199 9.0
80.998841737 10.0
81.032264274 3.0
81.065686811 6.0
81.099109348 11.0
81.132531886 9.0
81.165954423 7.0
81.199376960 4.0
81.232799497 5.0
81.266222035 5.0
81.299644572 10.0
81.333067109 8.0
81.366489646 12.0
81.399912183 8.0
81.433334721 7.0
81.466757258 7.0
81.500179795 5.0
81.533602332 5.0
81.567024870 6.0
81.600447407 11.0
81.633869944 4.0
81.667292481 12.0
81.700715019 8.0
81.734137556 8.0
81.767560093 8.0
81.800982630 6.0
81.834405168 13.0
81.867827705 7.0
81.901250242 6.0
81.934672779 9.0
81.968095317 9.0
82.001517854 4.0
82.034940391 4.0
82.068362928 5.0
82.101785466 8.0
82.135208003 6.0
82.168630540 8.0
82.202053077 7.0
82.235475615 2.0
82.268898152 6.0
82.302320689 10.0
82.335743226 9.0
82.369165763 6.0
82.402588301 7.0
82.436010838 6.0
82.469433375 4.0
82.502855912 9.0
82.536278450 3.0
82.569700987 6.0
82.603123524 6.0
82.636546061 11.0
82.669968599 10.0
82.703391136 5.0
82.736813673 9.0
82.770236210 11.0
82.803658748 9.0
82.837081285 9.0
82.870503822 6.0
82.903926359 10.0
82.937348897 6.0
82.970771434 7.0
83.004193971 9.0
83.037616508 6.0
83.071039046 4.0
83.104461583 5.0
83.137884120 9.0
83.171306657 7.0
83.204729195 7.0
83.238151732 5.0
83.271574269 6.0
83.304996806 6.0
83.338419344 9.0
83.371841881 6.0
83.405264418 3.0
83.438686955 10.0
83.472109492 4.0
83.505532030 9.0
83.538954567 9.0
83.572377104 9.0
83.605799641 8.0
83.639222179 6.0
83.672644716 8.0
83.706067253 9.0
83.739489790 9.0
83.772912328 8.0
83.806334865 9.0
83.839757402 3.0
83.873179939 7.0
83.906602477 7.0
83.940025014 2.0
83.973447551 6.0
84.006870088 8.0
84.040292626 11.0
84.073715163 7.0
84.107137700 11.0
84.140560237 5.0
84.173982775 11.0
84.207405312 12.0
84.240827849 6.0
84.274250386 11.0
84.307672924 6.0
84.341095461 9.0
84.374517998 5.0
84.407940535 6.0
84.441363072 6.0
84.474785610 3.0
84.508208147 7.0
84.541630684 11.0
84.575053221 5.0
84.608475759 6.0
84.641898296 8.0
84.675320833 9.0
84.708743370 13.0
84.742165908 6.0
84.775588445 4.0
84.809010982 6.0
84.842433519 8.0
84.875856057 9.0
84.909278594 2.0
84.942701131 8.0
84.976123668 10.0
85.009546206 12.0
85.042968743 7.0
85.076391280 8.0
85.109813817 8.0
85.143236355 6.0
85.176658892 5.0
85.210081429 12.0
85.243503966 8.0
85.276926504 10.0
85.310349041 7.0
85.343771578 6.0
85.377194115 12.0
85.410616653 4.0
85.444039190 4.0
85.477461727 6.0
85.510884264 5.0
85.544306801 11.0
85.577729339 7.0
85.611151876 7.0
85.644574413 6.0
85.677996950 8.0
85.711419488 7.0
85.744842025 6.0
85.778264562 5.0
85.811687099 10.0
85.845109637 8.0
85.878532174 6.0
85.911954711 7.0
85.945377248 11.0
85.978799786 9.0
86.012222323 7.0
86.045644860 12.0
86.079067397 11.0
86.112489935 5.0
86.145912472 16.0
86.179335009 6.0
86.212757546 9.0
86.246180084 11.0
86.279602621 2.0
86.313025158 6.0
86.346447695 6.0
86.379870233 9.0
86.413292770 15.0
86.446715307 6.0
86.480137844 8.0
86.513560381 8.0
86.546982919 11.0
86.580405456 8.0
86.613827993 10.0
86.647250530 4.0
86.680673068 11.0
86.714095605 6.0
86.747518142 11.0
86.780940679 9.0
86.814363217 11.0
86.847785754 8.0
86.881208291 10.0
86.914630828 3.0
86.948053366 8.0
86.981475903 7.0
87.014898440 15.0
87.048320977 6.0
87.081743515 7.0
87.115166052 8.0
87.148588589 7.0
87.182011126 10.0
87.215433664 8.0
87.248856201 8.0
87.282278738 12.0
87.315701275 9.0
87.349123813 9.0
87.382546350 11.0
87.415968887 6.0
87.449391424 7.0
87.482813962 11.0
87.516236499 6.0
87.549659036 11.0
87.583081573 11.0
87.616504110 13.0
87.649926648 11.0
87.683349185 6.0
87.716771722 6.0
87.750194259 10.0
87.783616797 12.0
87.817039334 12.0
87.850461871 8.0
87.883884408 4.0
87.917306946 8.0
87.950729483 13.0
87.984152020 13.0
88.017574557 7.0
88.050997095 9.0
88.084419632 8.0
88.117842169 10.0
88.151264706 9.0
88.184687244 11.0
88.218109781 7.0
88.251532318 8.0
88.284954855 17.0
88.318377393 17.0
88.351799930 13.0
88.385222467 10.0
88.418645004 7.0
88.452067542 9.0
88.485490079 7.0
88.518912616 10.0
88.552335153 15.0
88.585757690 18.0
88.619180228 10.0
88.652602765 10.0
88.686025302 8.0
88.719447839 11.0
88.752870377 17.0
88.786292914 11.0
88.819715451 11.0
88.853137988 17.0
88.886560526 7.0
88.919983063 15.0
88.953405600 13.0
88.986828137 11.0
89.020250675 9.0
89.053673212 11.0
89.087095749 8.0
89.120518286 10.0
89.153940824 15.0
89.187363361 10.0
89.220785898 10.0
89.254208435 17.0
89.287630973 17.0
89.321053510 16.0
89.354476047 6.0
89.387898584 18.0
89.421321122 15.0
89.454743659 15.0
89.488166196 9.0
89.521588733 17.0
89.555011271 10.0
89.588433808 13.0
89.621856345 15.0
89.655278882 15.0
89.688701419 15.0
89.722123957 10.0
89.755546494 21.0
89.788969031 16.0
89.822391568 21.0
89.855814106 19.0
89.889236643 17.0
89.922659180 11.0
89.956081717 13.0
89.989504255 11.0
90.022926792 10.0
90.056349329 17.0
90.089771866 17.0
90.123194404 13.0
90.156616941 16.0
90.190039478 25.0
90.223462015 23.0
90.256884553 19.0
90.290307090 26.0
90.323729627 13.0
90.357152164 18.0
90.390574702 25.0
90.423997239 18.0
90.457419776 25.0
90.490842313 23.0
90.524264851 20.0
90.557687388 24.0
90.591109925 24.0
90.624532462 33.0
90.657954999 24.0
90.691377537 27.0
90.724800074 29.0
90.758222611 33.0
90.791645148 26.0
90.825067686 39.0
90.858490223 33.0
90.891912760 32.0
90.925335297 35.0
90.958757835 44.0
90.992180372 30.0
91.025602909 34.0
91.059025446 31.0
91.092447984 45.0
91.125870521 41.0
91.159293058 50.0
91.192715595 48.0
91.226138133 57.0
91.259560670 57.0
91.292983207 57.0
91.326405744 64.0
91.359828282 80.0
91.393250819 77.0
91.426673356 100.0
91.460095893 86.0
91.493518431 90.0
91.526940968 104.0
91.560363505 108.0
91.593786042 132.0
91.627208580 135.0
91.660631117 142.0
91.694053654 148.0
91.727476191 174.0
91.760898728 173.0
91.794321266 186.0
91.827743803 189.0
91.861166340 209.0
91.894588877 231.0
91.928011415 233.0
91.961433952 256.0
91.994856489 237.0
92.028279026 259.0
92.061701564 242.0
92.095124101 251.0
92.128546638 258.0
92.161969175 268.0
92.195391713 263.0
92.228814250 255.0
92.262236787 248.0
92.295659324 254.0
92.329081862 268.0
92.362504399 266.0
92.395926936 232.0
92.429349473 264.0
92.462772011 231.0
92.496194548 234.0
92.529617085 233.0
92.563039622 251.0
92.596462160 212.0
92.629884697 220.0
92.663307234 235.0
92.696729771 214.0
92.730152308 206.0
92.763574846 192.0
92.796997383 184.0
92.830419920 190.0
92.863842457 161.0
92.897264995 173.0
92.930687532 156.0
92.964110069 149.0
92.997532606 125.0
93.030955144 135.0
93.064377681 135.0
93.097800218 119.0
93.131222755 125.0
93.164645293 103.0
93.198067830 111.0
93.231490367 92.0
93.264912904 90.0
93.298335442 96.0
93.331757979 67.0
93.365180516 82.0
93.398603053 85.0
93.432025591 77.0
93.465448128 61.0
93.498870665 62.0
93.532293202 44.0
93.565715740 58.0
93.599138277 49.0
93.632560814 45.0
93.665983351 45.0
93.699405889 38.0
93.732828426 34.0
93.766250963 37.0
93.799673500 40.0
93.833096037 39.0
93.866518575 27.0
93.899941112 22.0
93.933363649 30.0
93.966786186 44.0
94.000208724 26.0
94.033631261 25.0
94.067053798 34.0
94.100476335 27.0
94.133898873 36.0
94.167321410 19.0
94.200743947 19.0
94.234166484 16.0
94.267589022 15.0
94.301011559 21.0
94.334434096 18.0
94.367856633 21.0
94.401279171 16.0
94.434701708 19.0
94.468124245 21.0
94.501546782 21.0
94.534969320 25.0
94.568391857 15.0
94.601814394 21.0
94.635236931 17.0
94.668659469 10.0
94.702082006 8.0
94.735504543 18.0
94.768927080 23.0
94.802349617 15.0
94.835772155 9.0
94.869194692 9.0
94.902617229 15.0
94.936039766 11.0
94.969462304 19.0
95.002884841 12.0
95.036307378 6.0
95.069729915 17.0
95.103152453 15.0
95.136574990 11.0
95.169997527 18.0
95.203420064 7.0
95.236842602 18.0
95.270265139 17.0
95.303687676 15.0
95.337110213 10.0
95.370532751 13.0
95.403955288 13.0
95.437377825 11.0
95.470800362 15.0
95.504222900 7.0
95.537645437 11.0
95.571067974 5.0
95.604490511 12.0
95.637913049 12.0
95.671335586 10.0
95.704758123 8.0
95.738180660 9.0
95.771603198 10.0
95.805025735 8.0
95.838448272 9.0
95.871870809 2.0
95.905293346 8.0
95.938715884 9.0
95.972138421 5.0
96.005560958 6.0
96.038983495 10.0
96.072406033 6.0
96.105828570 8.0
96.139251107 7.0
96.172673644 11.0
96.206096182 12.0
96.239518719 10.0
96.272941256 3.0
96.306363793 5.0
96.339786331 7.0
96.373208868 7.0
96.406631405 6.0
96.440053942 7.0
96.473476480 11.0
96.506899017 5.0
96.540321554 3.0
96.573744091 5.0
96.607166629 9.0
96.640589166 11.0
96.674011703 5.0
96.707434240 10.0
96.740856778 9.0
96.774279315 8.0
96.807701852 13.0
96.841124389 8.0
96.874546926 8.0
96.907969464 4.0
96.941392001 4.0
96.974814538 7.0
97.008237075 9.0
97.041659613 7.0
97.075082150 8.0
97.108504687 8.0
97.141927224 12.0
97.175349762 9.0
97.208772299 9.0
97.242194836 6.0
97.275617373 8.0
97.309039911 10.0
97.342462448 11.0
97.375884985 7.0
97.409307522 10.0
97.442730060 10.0
97.476152597 10.0
97.509575134 4.0
97.542997671 6.0
97.576420209 12.0
97.609842746 4.0
97.643265283 7.0
97.676687820 8.0
97.710110358 6.0
97.743532895 9.0
97.776955432 4.0
97.810377969 4.0
97.843800507 6.0
97.877223044 9.0
97.910645581 8.0
97.944068118 10.0
97.977490655 10.0
98.010913193 8.0
98.044335730 1.0
98.077758267 6.0
98.111180804 6.0
98.144603342 5.0
98.178025879 6.0
98.211448416 5.0
98.244870953 10.0
98.278293491 11.0
98.311716028 8.0
98.345138565 7.0
98.378561102 9.0
98.411983640 5.0
98.445406177 9.0
98.478828714 5.0
98.512251251 7.0
98.545673789 7.0
98.579096326 2.0
98.612518863 9.0
98.645941400 9.0
98.679363938 8.0
98.712786475 4.0
98.746209012 7.0
98.779631549 7.0
98.813054087 6.0
98.846476624 7.0
98.879899161 11.0
98.913321698 8.0
98.946744235 8.0
98.980166773 8.0
99.013589310 5.0
99.047011847 4.0
99.080434384 9.0
99.113856922 3.0
99.147279459 6.0
99.180701996 8.0
99.214124533 7.0
99.247547071 3.0
99.280969608 5.0
99.314392145 6.0
99.347814682 9.0
99.381237220 4.0
99.414659757 8.0
99.448082294 8.0
99.481504831 8.0
99.514927369 5.0
99.548349906 11.0
99.581772443 5.0
99.615194980 4.0
99.648617518 4.0
99.682040055 7.0
99.715462592 7.0
99.748885129 4.0
99.782307667 8.0
99.815730204 5.0
99.849152741 4.0
99.882575278 5.0
99.915997816 5.0
99.949420353 5.0
99.982842890 3.0
