20.002711270 77.0
20.036133807 79.0
20.069556344 94.0
20.102978882 75.0
20.136401419 63.0
20.169823956 92.0
20.203246493 77.0
20.236669031 83.0
20.270091568 86.0
20.303514105 89.0
20.336936642 85.0
20.370359180 76.0
20.403781717 78.0
20.437204254 69.0
20.470626791 64.0
20.504049329 87.0
20.537471866 82.0
20.570894403 88.0
20.604316940 86.0
20.637739478 76.0
20.671162015 82.0
20.704584552 80.0
20.738007089 72.0
20.771429627 77.0
20.804852164 62.0
20.838274701 76.0
20.871697238 65.0
20.905119776 75.0
20.938542313 81.0
20.971964850 64.0
21.005387387 60.0
21.038809925 91.0
21.072232462 85.0
21.105654999 78.0
21.139077536 63.0
21.172500073 92.0
21.205922611 57.0
21.239345148 81.0
21.272767685 62.0
21.306190222 81.0
21.339612760 63.0
21.373035297 69.0
21.406457834 77.0
21.439880371 83.0
21.473302909 77.0
21.506725446 80.0
21.540147983 72.0
21.573570520 49.0
21.606993058 74.0
21.640415595 91.0
21.673838132 51.0
21.707260669 61.0
21.740683207 83.0
21.774105744 73.0
21.807528281 66.0
21.840950818 60.0
21.874373356 59.0
21.907795893 63.0
21.941218430 52.0
21.974640967 77.0
22.008063505 86.0
22.041486042 78.0
22.074908579 67.0
22.108331116 66.0
22.141753653 66.0
22.175176191 73.0
22.208598728 78.0
22.242021265 55.0
22.275443802 74.0
22.308866340 69.0
22.342288877 82.0
22.375711414 68.0
22.409133951 79.0
22.442556489 54.0
22.475979026 67.0
22.509401563 67.0
22.542824100 66.0
22.576246638 85.0
22.609669175 62.0
22.643091712 59.0
22.676514249 55.0
22.709936787 72.0
22.743359324 63.0
22.776781861 52.0
22.810204398 61.0
22.843626936 59.0
22.877049473 63.0
22.910472010 60.0
22.943894547 73.0
22.977317085 57.0
23.010739622 67.0
23.044162159 82.0
23.077584696 62.0
23.111007234 74.0
23.144429771 57.0
23.177852308 53.0
23.211274845 62.0
23.244697382 68.0
23.278119920 62.0
23.311542457 63.0
23.344964994 75.0
23.378387531 71.0
23.411810069 62.0
23.445232606 59.0
23.478655143 55.0
23.512077680 64.0
23.545500218 69.0
23.578922755 60.0
23.612345292 50.0
23.645767829 57.0
23.679190367 58.0
23.712612904 62.0
23.746035441 63.0
23.779457978 53.0
23.812880516 76.0
23.846303053 52.0
23.879725590 64.0
23.913148127 58.0
23.946570665 53.0
23.979993202 64.0
24.013415739 59.0
24.046838276 47.0
24.080260814 66.0
24.113683351 77.0
24.147105888 71.0
24.180528425 45.0
24.213950962 62.0
24.247373500 75.0
24.280796037 63.0
24.314218574 58.0
24.347641111 65.0
24.381063649 63.0
24.414486186 61.0
24.447908723 71.0
24.481331260 64.0
24.514753798 63.0
24.548176335 47.0
24.581598872 64.0
24.615021409 61.0
24.648443947 50.0
24.681866484 55.0
24.715289021 72.0
24.748711558 58.0
24.782134096 67.0
24.815556633 49.0
24.848979170 48.0
24.882401707 51.0
24.915824245 49.0
24.949246782 48.0
24.982669319 48.0
25.016091856 60.0
25.049514394 62.0
25.082936931 57.0
25.116359468 59.0
25.149782005 65.0
25.183204543 54.0
25.216627080 61.0
25.250049617 53.0
25.283472154 65.0
25.316894691 59.0
25.350317229 69.0
25.383739766 75.0
25.417162303 65.0
25.450584840 48.0
25.484007378 57.0
25.517429915 67.0
25.550852452 59.0
25.584274989 67.0
25.617697527 58.0
25.651120064 52.0
25.684542601 75.0
25.717965138 53.0
25.751387676 72.0
25.784810213 54.0
25.818232750 52.0
25.851655287 67.0
25.885077825 50.0
25.918500362 62.0
25.951922899 43.0
25.985345436 49.0
26.018767974 51.0
26.052190511 46.0
26.085613048 51.0
26.119035585 44.0
26.152458123 61.0
26.185880660 54.0
26.219303197 71.0
26.252725734 52.0
26.286148271 60.0
26.319570809 51.0
26.352993346 50.0
26.386415883 55.0
26.419838420 59.0
26.453260958 73.0
26.486683495 53.0
26.520106032 41.0
26.553528569 57.0
26.586951107 41.0
26.620373644 55.0
26.653796181 52.0
26.687218718 57.0
26.720641256 40.0
26.754063793 53.0
26.787486330 48.0
26.820908867 69.0
26.854331405 59.0
26.887753942 53.0
26.921176479 50.0
26.954599016 49.0
26.988021554 47.0
27.021444091 66.0
27.054866628 63.0
27.088289165 64.0
27.121711703 48.0
27.155134240 60.0
27.188556777 53.0
27.221979314 58.0
27.255401852 55.0
27.288824389 59.0
27.322246926 52.0
27.355669463 55.0
27.389092000 51.0
27.422514538 57.0
27.455937075 57.0
27.489359612 62.0
27.522782149 52.0
27.556204687 73.0
27.589627224 62.0
27.623049761 50.0
27.656472298 48.0
27.689894836 61.0
27.723317373 55.0
27.756739910 47.0
27.790162447 48.0
27.823584985 54.0
27.857007522 50.0
27.890430059 63.0
27.923852596 73.0
27.957275134 69.0
27.990697671 50.0
28.024120208 58.0
28.057542745 50.0
28.090965283 63.0
28.124387820 49.0
28.157810357 48.0
28.191232894 54.0
28.224655432 61.0
28.258077969 77.0
28.291500506 59.0
28.324923043 58.0
28.358345580 43.0
28.391768118 68.0
28.425190655 73.0
28.458613192 61.0
28.492035729 54.0
28.525458267 54.0
28.558880804 59.0
28.592303341 44.0
28.625725878 57.0
28.659148416 62.0
28.692570953 58.0
28.725993490 48.0
28.759416027 48.0
28.792838565 58.0
28.826261102 66.0
28.859683639 54.0
28.893106176 65.0
28.926528714 51.0
28.959951251 60.0
28.993373788 39.0
29.026796325 64.0
29.060218863 64.0
29.093641400 53.0
29.127063937 60.0
29.160486474 49.0
29.193909012 54.0
29.227331549 64.0
29.260754086 48.0
29.294176623 71.0
29.327599161 69.0
29.361021698 62.0
29.394444235 52.0
29.427866772 63.0
29.461289309 55.0
29.494711847 66.0
29.528134384 66.0
29.561556921 60.0
29.594979458 68.0
29.628401996 54.0
29.661824533 67.0
29.695247070 52.0
29.728669607 67.0
29.762092145 60.0
29.795514682 78.0
29.828937219 60.0
29.862359756 52.0
29.895782294 67.0
29.929204831 64.0
29.962627368 66.0
29.996049905 65.0
30.029472443 71.0
30.062894980 68.0
30.096317517 59.0
30.129740054 67.0
30.163162592 72.0
30.196585129 78.0
30.230007666 64.0
30.263430203 72.0
30.296852741 75.0
30.330275278 76.0
30.363697815 78.0
30.397120352 74.0
30.430542889 64.0
30.463965427 60.0
30.497387964 79.0
30.530810501 41.0
30.564233038 71.0
30.597655576 74.0
30.631078113 90.0
30.664500650 66.0
30.697923187 72.0
30.731345725 81.0
30.764768262 73.0
30.798190799 69.0
30.831613336 71.0
30.865035874 90.0
30.898458411 76.0
30.931880948 71.0
30.965303485 69.0
30.998726023 85.0
31.032148560 76.0
31.065571097 96.0
31.098993634 104.0
31.132416172 88.0
31.165838709 96.0
31.199261246 90.0
31.232683783 82.0
31.266106321 94.0
31.299528858 96.0
31.332951395 83.0
31.366373932 87.0
31.399796470 108.0
31.433219007 103.0
31.466641544 116.0
31.500064081 95.0
31.533486618 117.0
31.566909156 93.0
31.600331693 132.0
31.633754230 96.0
31.667176767 127.0
31.700599305 133.0
31.734021842 110.0
31.767444379 113.0
31.800866916 109.0
31.834289454 138.0
31.867711991 139.0
31.901134528 123.0
31.934557065 135.0
31.967979603 139.0
32.001402140 121.0
32.034824677 151.0
32.068247214 118.0
32.101669752 135.0
32.135092289 149.0
32.168514826 152.0
32.201937363 165.0
32.235359901 161.0
32.268782438 150.0
32.302204975 153.0
32.335627512 166.0
32.369050050 174.0
32.402472587 189.0
32.435895124 155.0
32.469317661 175.0
32.502740198 156.0
32.536162736 150.0
32.569585273 172.0
32.603007810 151.0
32.636430347 181.0
32.669852885 170.0
32.703275422 181.0
32.736697959 175.0
32.770120496 177.0
32.803543034 192.0
32.836965571 169.0
32.870388108 172.0
32.903810645 153.0
32.937233183 183.0
32.970655720 184.0
33.004078257 170.0
33.037500794 194.0
33.070923332 178.0
33.104345869 155.0
33.137768406 186.0
33.171190943 135.0
33.204613481 181.0
33.238036018 147.0
33.271458555 192.0
33.304881092 183.0
33.338303630 167.0
33.371726167 151.0
33.405148704 153.0
33.438571241 166.0
33.471993779 172.0
33.505416316 156.0
33.538838853 144.0
33.572261390 142.0
33.605683927 176.0
33.639106465 152.0
33.672529002 184.0
33.705951539 152.0
33.739374076 152.0
33.772796614 146.0
33.806219151 152.0
33.839641688 174.0
33.873064225 131.0
33.906486763 155.0
33.939909300 145.0
33.973331837 167.0
34.006754374 147.0
34.040176912 133.0
34.073599449 162.0
34.107021986 145.0
34.140444523 119.0
34.173867061 128.0
34.207289598 124.0
34.240712135 121.0
34.274134672 144.0
34.307557210 152.0
34.340979747 157.0
34.374402284 135.0
34.407824821 133.0
34.441247359 117.0
34.474669896 127.0
34.508092433 136.0
34.541514970 116.0
34.574937507 142.0
34.608360045 120.0
34.641782582 147.0
34.675205119 151.0
34.708627656 141.0
34.742050194 160.0
34.775472731 110.0
34.808895268 106.0
34.842317805 109.0
34.875740343 125.0
34.909162880 95.0
34.942585417 145.0
34.976007954 114.0
35.009430492 123.0
35.042853029 138.0
35.076275566 125.0
35.109698103 124.0
35.143120641 131.0
35.176543178 158.0
35.209965715 138.0
35.243388252 132.0
35.276810790 128.0
35.310233327 144.0
35.343655864 128.0
35.377078401 151.0
35.410500939 129.0
35.443923476 150.0
35.477346013 153.0
35.510768550 150.0
35.544191088 137.0
35.577613625 139.0
35.611036162 142.0
35.644458699 132.0
35.677881236 150.0
35.711303774 121.0
35.744726311 152.0
35.778148848 146.0
35.811571385 170.0
35.844993923 159.0
35.878416460 163.0
35.911838997 208.0
35.945261534 227.0
35.978684072 244.0
36.012106609 260.0
36.045529146 252.0
36.078951683 310.0
36.112374221 363.0
36.145796758 333.0
36.179219295 367.0
36.212641832 411.0
36.246064370 389.0
36.279486907 429.0
36.312909444 395.0
36.346331981 459.0
36.379754519 422.0
36.413177056 482.0
36.446599593 447.0
36.480022130 442.0
36.513444668 432.0
36.546867205 411.0
36.580289742 433.0
36.613712279 437.0
36.647134816 418.0
36.680557354 456.0
36.713979891 387.0
36.747402428 377.0
36.780824965 400.0
36.814247503 360.0
36.847670040 372.0
36.881092577 294.0
36.914515114 319.0
36.947937652 292.0
36.981360189 258.0
37.014782726 257.0
37.048205263 217.0
37.081627801 206.0
37.115050338 186.0
37.148472875 172.0
37.181895412 165.0
37.215317950 165.0
37.248740487 133.0
37.282163024 125.0
37.315585561 110.0
37.349008099 124.0
37.382430636 110.0
37.415853173 96.0
37.449275710 130.0
37.482698248 93.0
37.516120785 95.0
37.549543322 106.0
37.582965859 101.0
37.616388397 90.0
37.649810934 78.0
37.683233471 72.0
37.716656008 79.0
37.750078545 65.0
37.783501083 74.0
37.816923620 74.0
37.850346157 83.0
37.883768694 85.0
37.917191232 68.0
37.950613769 59.0
37.984036306 82.0
38.017458843 63.0
38.050881381 66.0
38.084303918 76.0
38.117726455 76.0
38.151148992 66.0
38.184571530 51.0
38.217994067 64.0
38.251416604 64.0
38.284839141 64.0
38.318261679 47.0
38.351684216 74.0
38.385106753 65.0
38.418529290 75.0
38.451951828 77.0
38.485374365 63.0
38.518796902 78.0
38.552219439 77.0
38.585641977 80.0
38.619064514 66.0
38.652487051 86.0
38.685909588 83.0
38.719332125 77.0
38.752754663 80.0
38.786177200 74.0
38.819599737 65.0
38.853022274 79.0
38.886444812 75.0
38.919867349 75.0
38.953289886 67.0
38.986712423 76.0
39.020134961 58.0
39.053557498 79.0
39.086980035 90.0
39.120402572 77.0
39.153825110 60.0
39.187247647 75.0
39.220670184 80.0
39.254092721 82.0
39.287515259 62.0
39.320937796 68.0
39.354360333 67.0
39.387782870 73.0
39.421205408 63.0
39.454627945 67.0
39.488050482 85.0
39.521473019 86.0
39.554895557 88.0
39.588318094 89.0
39.621740631 79.0
39.655163168 96.0
39.688585706 90.0
39.722008243 79.0
39.755430780 109.0
39.788853317 79.0
39.822275854 95.0
39.855698392 97.0
39.889120929 95.0
39.922543466 79.0
39.955966003 83.0
39.989388541 83.0
40.022811078 79.0
40.056233615 88.0
40.089656152 82.0
40.123078690 101.0
40.156501227 88.0
40.189923764 90.0
40.223346301 100.0
40.256768839 94.0
40.290191376 118.0
40.323613913 105.0
40.357036450 117.0
40.390458988 115.0
40.423881525 103.0
40.457304062 131.0
40.490726599 111.0
40.524149137 117.0
40.557571674 104.0
40.590994211 117.0
40.624416748 92.0
40.657839286 102.0
40.691261823 128.0
40.724684360 110.0
40.758106897 99.0
40.791529434 103.0
40.824951972 120.0
40.858374509 111.0
40.891797046 121.0
40.925219583 121.0
40.958642121 149.0
40.992064658 123.0
41.025487195 132.0
41.058909732 142.0
41.092332270 148.0
41.125754807 159.0
41.159177344 162.0
41.192599881 164.0
41.226022419 199.0
41.259444956 160.0
41.292867493 171.0
41.326290030 167.0
41.359712568 174.0
41.393135105 226.0
41.426557642 444.0
41.459980179 743.0
41.493402717 694.0
41.526825254 656.0
41.560247791 634.0
41.593670328 598.0
41.627092866 693.0
41.660515403 705.0
41.693937940 758.0
41.727360477 789.0
41.760783015 891.0
41.794205552 975.0
41.827628089 969.0
41.861050626 1101.0
41.894473163 1093.0
41.927895701 1177.0
41.961318238 1236.0
41.994740775 1385.0
42.028163312 1540.0
42.061585850 1464.0
42.095008387 1717.0
42.128430924 1867.0
42.161853461 1999.0
42.195275999 2094.0
42.228698536 2319.0
42.262121073 2412.0
42.295543610 2584.0
42.328966148 2648.0
42.362388685 2743.0
42.395811222 2888.0
42.429233759 2991.0
42.462656297 3199.0
42.496078834 3425.0
42.529501371 3576.0
42.562923908 3819.0
42.596346446 4046.0
42.629768983 4557.0
42.663191520 5028.0
42.696614057 6121.0
42.730036595 8485.0
42.763459132 13454.0
42.796881669 16142.0
42.830304206 17087.0
42.863726743 25019.0
42.897149281 51669.0
42.930571818 150843.0
42.963994355 511925.0
42.997416892 355428.0
43.030839430 115991.0
43.064261967 260789.0
43.097684504 377658.0
43.131107041 87193.0
43.164529579 28838.0
43.197952116 16241.0
43.231374653 11263.0
43.264797190 8206.0
43.298219728 6677.0
43.331642265 5513.0
43.365064802 4671.0
43.398487339 4061.0
43.431909877 3582.0
43.465332414 3217.0
43.498754951 3015.0
43.532177488 2795.0
43.565600026 2618.0
43.599022563 2359.0
43.632445100 2305.0
43.665867637 2122.0
43.699290175 1957.0
43.732712712 1860.0
43.766135249 1724.0
43.799557786 1717.0
43.832980324 1591.0
43.866402861 1557.0
43.899825398 1442.0
43.933247935 1377.0
43.966670472 1236.0
44.000093010 1222.0
44.033515547 1144.0
44.066938084 1083.0
44.100360621 997.0
44.133783159 997.0
44.167205696 915.0
44.200628233 878.0
44.234050770 844.0
44.267473308 810.0
44.300895845 772.0
44.334318382 742.0
44.367740919 737.0
44.401163457 648.0
44.434585994 625.0
44.468008531 606.0
44.501431068 536.0
44.534853606 546.0
44.568276143 507.0
44.601698680 483.0
44.635121217 455.0
44.668543755 412.0
44.701966292 405.0
44.735388829 349.0
44.768811366 355.0
44.802233904 339.0
44.835656441 338.0
44.869078978 330.0
44.902501515 274.0
44.935924052 250.0
44.969346590 248.0
45.002769127 235.0
45.036191664 207.0
45.069614201 240.0
45.103036739 202.0
45.136459276 181.0
45.169881813 167.0
45.203304350 188.0
45.236726888 170.0
45.270149425 172.0
45.303571962 162.0
45.336994499 147.0
45.370417037 117.0
45.403839574 131.0
45.437262111 137.0
45.470684648 124.0
45.504107186 125.0
45.537529723 108.0
45.570952260 119.0
45.604374797 103.0
45.637797335 115.0
45.671219872 81.0
45.704642409 95.0
45.738064946 100.0
45.771487484 87.0
45.804910021 114.0
45.838332558 87.0
45.871755095 94.0
45.905177633 89.0
45.938600170 89.0
45.972022707 57.0
46.005445244 86.0
46.038867781 80.0
46.072290319 79.0
46.105712856 65.0
46.139135393 59.0
46.172557930 62.0
46.205980468 75.0
46.239403005 62.0
46.272825542 85.0
46.306248079 83.0
46.339670617 80.0
46.373093154 85.0
46.406515691 95.0
46.439938228 88.0
46.473360766 75.0
46.506783303 101.0
46.540205840 94.0
46.573628377 91.0
46.607050915 83.0
46.640473452 53.0
46.673895989 67.0
46.707318526 62.0
46.740741064 66.0
46.774163601 72.0
46.807586138 73.0
46.841008675 59.0
46.874431213 54.0
46.907853750 60.0
46.941276287 53.0
46.974698824 66.0
47.008121362 49.0
47.041543899 62.0
47.074966436 64.0
47.108388973 40.0
47.141811510 49.0
47.175234048 52.0
47.208656585 48.0
47.242079122 60.0
47.275501659 40.0
47.308924197 46.0
47.342346734 47.0
47.375769271 38.0
47.409191808 38.0
47.442614346 27.0
47.476036883 43.0
47.509459420 44.0
47.542881957 39.0
47.576304495 26.0
47.609727032 35.0
47.643149569 29.0
47.676572106 48.0
47.709994644 36.0
47.743417181 31.0
47.776839718 29.0
47.810262255 34.0
47.843684793 47.0
47.877107330 32.0
47.910529867 44.0
47.943952404 27.0
47.977374942 41.0
48.010797479 32.0
48.044220016 40.0
48.077642553 32.0
48.111065090 37.0
48.144487628 48.0
48.177910165 24.0
48.211332702 29.0
48.244755239 32.0
48.278177777 27.0
48.311600314 37.0
48.345022851 25.0
48.378445388 31.0
48.411867926 18.0
48.445290463 30.0
48.478713000 20.0
48.512135537 22.0
48.545558075 32.0
48.578980612 26.0
48.612403149 34.0
48.645825686 24.0
48.679248224 33.0
48.712670761 34.0
48.746093298 32.0
48.779515835 25.0
48.812938373 22.0
48.846360910 22.0
48.879783447 32.0
48.913205984 30.0
48.946628522 26.0
48.980051059 33.0
49.013473596 20.0
49.046896133 20.0
49.080318671 19.0
49.113741208 24.0
49.147163745 20.0
49.180586282 19.0
49.214008819 17.0
49.247431357 21.0
49.280853894 22.0
49.314276431 24.0
49.347698968 22.0
49.381121506 26.0
49.414544043 26.0
49.447966580 22.0
49.481389117 18.0
49.514811655 25.0
49.548234192 11.0
49.581656729 38.0
49.615079266 20.0
49.648501804 24.0
49.681924341 22.0
49.715346878 20.0
49.748769415 18.0
49.782191953 12.0
49.815614490 22.0
49.849037027 25.0
49.882459564 13.0
49.915882102 17.0
49.949304639 22.0
49.982727176 22.0
50.016149713 22.0
50.049572251 26.0
50.082994788 15.0
50.116417325 27.0
50.149839862 30.0
50.183262399 21.0
50.216684937 24.0
50.250107474 17.0
50.283530011 25.0
50.316952548 26.0
50.350375086 21.0
50.383797623 26.0
50.417220160 13.0
50.450642697 21.0
50.484065235 20.0
50.517487772 19.0
50.550910309 8.0
50.584332846 17.0
50.617755384 19.0
50.651177921 35.0
50.684600458 12.0
50.718022995 17.0
50.751445533 23.0
50.784868070 22.0
50.818290607 17.0
50.851713144 18.0
50.885135682 18.0
50.918558219 22.0
50.951980756 16.0
50.985403293 25.0
51.018825831 9.0
51.052248368 11.0
51.085670905 18.0
51.119093442 11.0
51.152515980 18.0
51.185938517 16.0
51.219361054 12.0
51.252783591 12.0
51.286206128 16.0
51.319628666 10.0
51.353051203 24.0
51.386473740 20.0
51.419896277 13.0
51.453318815 13.0
51.486741352 20.0
51.520163889 19.0
51.553586426 23.0
51.587008964 10.0
51.620431501 13.0
51.653854038 12.0
51.687276575 22.0
51.720699113 22.0
51.754121650 22.0
51.787544187 16.0
51.820966724 9.0
51.854389262 15.0
51.887811799 12.0
51.921234336 21.0
51.954656873 11.0
51.988079411 21.0
52.021501948 16.0
52.054924485 20.0
52.088347022 15.0
52.121769560 13.0
52.155192097 9.0
52.188614634 17.0
52.222037171 16.0
52.255459708 11.0
52.288882246 16.0
52.322304783 6.0
52.355727320 7.0
52.389149857 11.0
52.422572395 12.0
52.455994932 17.0
52.489417469 22.0
52.522840006 27.0
52.556262544 17.0
52.589685081 18.0
52.623107618 12.0
52.656530155 22.0
52.689952693 15.0
52.723375230 17.0
52.756797767 27.0
52.790220304 8.0
52.823642842 12.0
52.857065379 15.0
52.890487916 8.0
52.923910453 11.0
52.957332991 13.0
52.990755528 18.0
53.024178065 17.0
53.057600602 13.0
53.091023140 8.0
53.124445677 18.0
53.157868214 18.0
53.191290751 9.0
53.224713289 12.0
53.258135826 8.0
53.291558363 15.0
53.324980900 13.0
53.358403437 12.0
53.391825975 12.0
53.425248512 11.0
53.458671049 18.0
53.492093586 12.0
53.525516124 13.0
53.558938661 16.0
53.592361198 19.0
53.625783735 10.0
53.659206273 17.0
53.692628810 8.0
53.726051347 31.0
53.759473884 13.0
53.792896422 16.0
53.826318959 12.0
53.859741496 15.0
53.893164033 11.0
53.926586571 18.0
53.960009108 17.0
53.993431645 15.0
54.026854182 15.0
54.060276720 10.0
54.093699257 11.0
54.127121794 19.0
54.160544331 13.0
54.193966869 15.0
54.227389406 10.0
54.260811943 12.0
54.294234480 13.0
54.327657017 16.0
54.361079555 20.0
54.394502092 6.0
54.427924629 16.0
54.461347166 10.0
54.494769704 18.0
54.528192241 17.0
54.561614778 9.0
54.595037315 9.0
54.628459853 16.0
54.661882390 15.0
54.695304927 20.0
54.728727464 18.0
54.762150002 10.0
54.795572539 9.0
54.828995076 12.0
54.862417613 15.0
54.895840151 11.0
54.929262688 13.0
54.962685225 18.0
54.996107762 13.0
55.029530300 10.0
55.062952837 7.0
55.096375374 18.0
55.129797911 18.0
55.163220449 6.0
55.196642986 20.0
55.230065523 21.0
55.263488060 18.0
55.296910598 18.0
55.330333135 17.0
55.363755672 12.0
55.397178209 16.0
55.430600746 15.0
55.464023284 11.0
55.497445821 18.0
55.530868358 13.0
55.564290895 16.0
55.597713433 17.0
55.631135970 23.0
55.664558507 10.0
55.697981044 15.0
55.731403582 13.0
55.764826119 11.0
55.798248656 20.0
55.831671193 9.0
55.865093731 10.0
55.898516268 10.0
55.931938805 18.0
55.965361342 11.0
55.998783880 13.0
56.032206417 12.0
56.065628954 16.0
56.099051491 11.0
56.132474029 7.0
56.165896566 15.0
56.199319103 16.0
56.232741640 11.0
56.266164178 9.0
56.299586715 9.0
56.333009252 12.0
56.366431789 10.0
56.399854326 13.0
56.433276864 19.0
56.466699401 15.0
56.500121938 11.0
56.533544475 8.0
56.566967013 15.0
56.600389550 8.0
56.633812087 11.0
56.667234624 8.0
56.700657162 8.0
56.734079699 8.0
56.767502236 16.0
56.800924773 7.0
56.834347311 11.0
56.867769848 12.0
56.901192385 13.0
56.934614922 15.0
56.968037460 13.0
57.001459997 7.0
57.034882534 16.0
57.068305071 5.0
57.101727609 18.0
57.135150146 9.0
57.168572683 18.0
57.201995220 11.0
57.235417758 7.0
57.268840295 11.0
57.302262832 19.0
57.335685369 12.0
57.369107907 16.0
57.402530444 12.0
57.435952981 13.0
57.469375518 13.0
57.502798055 16.0
57.536220593 5.0
57.569643130 8.0
57.603065667 17.0
57.636488204 10.0
57.669910742 6.0
57.703333279 11.0
57.736755816 11.0
57.770178353 12.0
57.803600891 12.0
57.837023428 10.0
57.870445965 10.0
57.903868502 8.0
57.937291040 16.0
57.970713577 16.0
58.004136114 11.0
58.037558651 9.0
58.070981189 8.0
58.104403726 10.0
58.137826263 9.0
58.171248800 15.0
58.204671338 21.0
58.238093875 18.0
58.271516412 13.0
58.304938949 13.0
58.338361487 16.0
58.371784024 12.0
58.405206561 12.0
58.438629098 10.0
58.472051635 16.0
58.505474173 8.0
58.538896710 7.0
58.572319247 17.0
58.605741784 15.0
58.639164322 3.0
58.672586859 9.0
58.706009396 11.0
58.739431933 11.0
58.772854471 9.0
58.806277008 15.0
58.839699545 11.0
58.873122082 10.0
58.906544620 15.0
58.939967157 18.0
58.973389694 15.0
59.006812231 16.0
59.040234769 16.0
59.073657306 9.0
59.107079843 12.0
59.140502380 15.0
59.173924918 12.0
59.207347455 16.0
59.240769992 9.0
59.274192529 17.0
59.307615067 22.0
59.341037604 13.0
59.374460141 9.0
59.407882678 10.0
59.441305216 10.0
59.474727753 18.0
59.508150290 9.0
59.541572827 7.0
59.574995364 13.0
59.608417902 9.0
59.641840439 11.0
59.675262976 16.0
59.708685513 15.0
59.742108051 10.0
59.775530588 7.0
59.808953125 24.0
59.842375662 7.0
59.875798200 10.0
59.909220737 8.0
59.942643274 19.0
59.976065811 11.0
60.009488349 17.0
60.042910886 4.0
60.076333423 5.0
60.109755960 11.0
60.143178498 12.0
60.176601035 18.0
60.210023572 16.0
60.243446109 6.0
60.276868647 9.0
60.310291184 17.0
60.343713721 11.0
60.377136258 8.0
60.410558796 9.0
60.443981333 7.0
60.477403870 15.0
60.510826407 11.0
60.544248944 8.0
60.577671482 17.0
60.611094019 15.0
60.644516556 9.0
60.677939093 10.0
60.711361631 9.0
60.744784168 7.0
60.778206705 9.0
60.811629242 13.0
60.845051780 13.0
60.878474317 12.0
60.911896854 12.0
60.945319391 16.0
60.978741929 8.0
61.012164466 8.0
61.045587003 15.0
61.079009540 12.0
61.112432078 11.0
61.145854615 16.0
61.179277152 17.0
61.212699689 16.0
61.246122227 8.0
61.279544764 16.0
61.312967301 13.0
61.346389838 13.0
61.379812376 12.0
61.413234913 20.0
61.446657450 19.0
61.480079987 16.0
61.513502525 11.0
61.546925062 4.0
61.580347599 12.0
61.613770136 7.0
61.647192673 4.0
61.680615211 15.0
61.714037748 10.0
61.747460285 12.0
61.780882822 12.0
61.814305360 20.0
61.847727897 11.0
61.881150434 12.0
61.914572971 9.0
61.947995509 13.0
61.981418046 6.0
62.014840583 12.0
62.048263120 15.0
62.081685658 20.0
62.115108195 2.0
62.148530732 19.0
62.181953269 15.0
62.215375807 16.0
62.248798344 18.0
62.282220881 15.0
62.315643418 16.0
62.349065956 8.0
62.382488493 16.0
62.415911030 13.0
62.449333567 15.0
62.482756105 12.0
62.516178642 6.0
62.549601179 15.0
62.583023716 13.0
62.616446253 11.0
62.649868791 13.0
62.683291328 15.0
62.716713865 9.0
62.750136402 11.0
62.783558940 17.0
62.816981477 11.0
62.850404014 11.0
62.883826551 11.0
62.917249089 10.0
62.950671626 11.0
62.984094163 13.0
63.017516700 19.0
63.050939238 15.0
63.084361775 21.0
63.117784312 16.0
63.151206849 13.0
63.184629387 20.0
63.218051924 12.0
63.251474461 17.0
63.284896998 8.0
63.318319536 17.0
63.351742073 10.0
63.385164610 13.0
63.418587147 16.0
63.452009685 12.0
63.485432222 18.0
63.518854759 13.0
63.552277296 13.0
63.585699834 17.0
63.619122371 10.0
63.652544908 7.0
63.685967445 11.0
63.719389982 8.0
63.752812520 15.0
63.786235057 9.0
63.819657594 7.0
63.853080131 11.0
63.886502669 9.0
63.919925206 10.0
63.953347743 10.0
63.986770280 11.0
64.020192818 9.0
64.053615355 10.0
64.087037892 8.0
64.120460429 20.0
64.153882967 16.0
64.187305504 18.0
64.220728041 15.0
64.254150578 13.0
64.287573116 20.0
64.320995653 12.0
64.354418190 11.0
64.387840727 12.0
64.421263265 9.0
64.454685802 20.0
64.488108339 16.0
64.521530876 18.0
64.554953414 20.0
64.588375951 17.0
64.621798488 8.0
64.655221025 15.0
64.688643562 16.0
64.722066100 9.0
64.755488637 11.0
64.788911174 8.0
64.822333711 11.0
64.855756249 16.0
64.889178786 25.0
64.922601323 13.0
64.956023860 11.0
64.989446398 11.0
65.022868935 13.0
65.056291472 13.0
65.089714009 12.0
65.123136547 9.0
65.156559084 11.0
65.189981621 12.0
65.223404158 6.0
65.256826696 13.0
65.290249233 17.0
65.323671770 9.0
65.357094307 13.0
65.390516845 9.0
65.423939382 21.0
65.457361919 20.0
65.490784456 12.0
65.524206994 11.0
65.557629531 11.0
65.591052068 13.0
65.624474605 13.0
65.657897143 13.0
65.691319680 17.0
65.724742217 11.0
65.758164754 10.0
65.791587291 7.0
65.825009829 23.0
65.858432366 10.0
65.891854903 11.0
65.925277440 10.0
65.958699978 16.0
65.992122515 7.0
66.025545052 11.0
66.058967589 11.0
66.092390127 9.0
66.125812664 13.0
66.159235201 16.0
66.192657738 16.0
66.226080276 7.0
66.259502813 24.0
66.292925350 6.0
66.326347887 13.0
66.359770425 6.0
66.393192962 11.0
66.426615499 8.0
66.460038036 13.0
66.493460574 7.0
66.526883111 12.0
66.560305648 17.0
66.593728185 12.0
66.627150723 15.0
66.660573260 11.0
66.693995797 10.0
66.727418334 12.0
66.760840871 13.0
66.794263409 11.0
66.827685946 13.0
66.861108483 19.0
66.894531020 7.0
66.927953558 5.0
66.961376095 8.0
66.994798632 9.0
67.028221169 13.0
67.061643707 9.0
67.095066244 9.0
67.128488781 6.0
67.161911318 9.0
67.195333856 8.0
67.228756393 17.0
67.262178930 12.0
67.295601467 13.0
67.329024005 4.0
67.362446542 18.0
67.395869079 12.0
67.429291616 16.0
67.462714154 11.0
67.496136691 21.0
67.529559228 17.0
67.562981765 11.0
67.596404303 13.0
67.629826840 17.0
67.663249377 17.0
67.696671914 10.0
67.730094452 17.0
67.763516989 13.0
67.796939526 12.0
67.830362063 13.0
67.863784600 10.0
67.897207138 6.0
67.930629675 15.0
67.964052212 15.0
67.997474749 15.0
68.030897287 16.0
68.064319824 6.0
68.097742361 5.0
68.131164898 20.0
68.164587436 11.0
68.198009973 15.0
68.231432510 13.0
68.264855047 16.0
68.298277585 9.0
68.331700122 12.0
68.365122659 22.0
68.398545196 6.0
68.431967734 11.0
68.465390271 16.0
68.498812808 8.0
68.532235345 10.0
68.565657883 13.0
68.599080420 11.0
68.632502957 18.0
68.665925494 8.0
68.699348032 10.0
68.732770569 18.0
68.766193106 10.0
68.799615643 8.0
68.833038180 19.0
68.866460718 7.0
68.899883255 12.0
68.933305792 16.0
68.966728329 15.0
69.000150867 8.0
69.033573404 15.0
69.066995941 17.0
69.100418478 16.0
69.133841016 12.0
69.167263553 13.0
69.200686090 12.0
69.234108627 9.0
69.267531165 11.0
69.300953702 24.0
69.334376239 13.0
69.367798776 10.0
69.401221314 16.0
69.434643851 15.0
69.468066388 7.0
69.501488925 15.0
69.534911463 12.0
69.568334000 9.0
69.601756537 12.0
69.635179074 18.0
69.668601612 8.0
69.702024149 8.0
69.735446686 10.0
69.768869223 7.0
69.802291761 17.0
69.835714298 20.0
69.869136835 9.0
69.902559372 13.0
69.935981909 18.0
69.969404447 10.0
70.002826984 8.0
70.036249521 9.0
70.069672058 12.0
70.103094596 16.0
70.136517133 13.0
70.169939670 10.0
70.203362207 9.0
70.236784745 8.0
70.270207282 13.0
70.303629819 13.0
70.337052356 13.0
70.370474894 18.0
70.403897431 19.0
70.437319968 8.0
70.470742505 7.0
70.504165043 5.0
70.537587580 6.0
70.571010117 7.0
70.604432654 7.0
70.637855192 8.0
70.671277729 12.0
70.704700266 12.0
70.738122803 11.0
70.771545341 12.0
70.804967878 22.0
70.838390415 12.0
70.871812952 3.0
70.905235489 12.0
70.938658027 20.0
70.972080564 17.0
71.005503101 15.0
71.038925638 11.0
71.072348176 15.0
71.105770713 12.0
71.139193250 15.0
71.172615787 10.0
71.206038325 16.0
71.239460862 8.0
71.272883399 11.0
71.306305936 10.0
71.339728474 10.0
71.373151011 19.0
71.406573548 12.0
71.439996085 11.0
71.473418623 16.0
71.506841160 10.0
71.540263697 15.0
71.573686234 15.0
71.607108772 18.0
71.640531309 16.0
71.673953846 23.0
71.707376383 12.0
71.740798921 13.0
71.774221458 12.0
71.807643995 15.0
71.841066532 16.0
71.874489070 6.0
71.907911607 17.0
71.941334144 15.0
71.974756681 11.0
72.008179218 11.0
72.041601756 15.0
72.075024293 10.0
72.108446830 12.0
72.141869367 12.0
72.175291905 13.0
72.208714442 13.0
72.242136979 9.0
72.275559516 12.0
72.308982054 10.0
72.342404591 3.0
72.375827128 13.0
72.409249665 12.0
72.442672203 13.0
72.476094740 12.0
72.509517277 6.0
72.542939814 6.0
72.576362352 10.0
72.609784889 18.0
72.643207426 15.0
72.676629963 9.0
72.710052501 10.0
72.743475038 7.0
72.776897575 17.0
72.810320112 10.0
72.843742650 11.0
72.877165187 8.0
72.910587724 13.0
72.944010261 9.0
72.977432798 8.0
73.010855336 12.0
73.044277873 12.0
73.077700410 6.0
73.111122947 10.0
73.144545485 10.0
73.177968022 11.0
73.211390559 16.0
73.244813096 10.0
73.278235634 13.0
73.311658171 8.0
73.345080708 11.0
73.378503245 20.0
73.411925783 19.0
73.445348320 23.0
73.478770857 10.0
73.512193394 9.0
73.545615932 13.0
73.579038469 10.0
73.612461006 10.0
73.645883543 18.0
73.679306081 13.0
73.712728618 22.0
73.746151155 17.0
73.779573692 9.0
73.812996230 18.0
73.846418767 16.0
73.879841304 21.0
73.913263841 15.0
73.946686379 8.0
73.980108916 18.0
74.013531453 16.0
74.046953990 19.0
74.080376527 17.0
74.113799065 12.0
74.147221602 9.0
74.180644139 18.0
74.214066676 13.0
74.247489214 15.0
74.280911751 11.0
74.314334288 18.0
74.347756825 10.0
74.381179363 21.0
74.414601900 8.0
74.448024437 3.0
74.481446974 15.0
74.514869512 13.0
74.548292049 22.0
74.581714586 19.0
74.615137123 15.0
74.648559661 15.0
74.681982198 17.0
74.715404735 11.0
74.748827272 15.0
74.782249810 19.0
74.815672347 16.0
74.849094884 15.0
74.882517421 22.0
74.915939959 10.0
74.949362496 16.0
74.982785033 6.0
75.016207570 20.0
75.049630108 11.0
75.083052645 6.0
75.116475182 12.0
75.149897719 15.0
75.183320256 12.0
75.216742794 17.0
75.250165331 9.0
75.283587868 11.0
75.317010405 13.0
75.350432943 10.0
75.383855480 23.0
75.417278017 21.0
75.450700554 13.0
75.484123092 22.0
75.517545629 9.0
75.550968166 13.0
75.584390703 7.0
75.617813241 17.0
75.651235778 18.0
75.684658315 16.0
75.718080852 13.0
75.751503390 11.0
75.784925927 15.0
75.818348464 17.0
75.851771001 13.0
75.885193539 8.0
75.918616076 15.0
75.952038613 17.0
75.985461150 19.0
76.018883688 9.0
76.052306225 16.0
76.085728762 11.0
76.119151299 9.0
76.152573836 9.0
76.185996374 17.0
76.219418911 19.0
76.252841448 11.0
76.286263985 15.0
76.319686523 5.0
76.353109060 19.0
76.386531597 17.0
76.419954134 15.0
76.453376672 27.0
76.486799209 18.0
76.520221746 12.0
76.553644283 15.0
76.587066821 19.0
76.620489358 13.0
76.653911895 23.0
76.687334432 22.0
76.720756970 24.0
76.754179507 23.0
76.787602044 18.0
76.821024581 25.0
76.854447119 24.0
76.887869656 27.0
76.921292193 24.0
76.954714730 23.0
76.988137268 29.0
77.021559805 34.0
77.054982342 33.0
77.088404879 34.0
77.121827417 52.0
77.155249954 40.0
77.188672491 44.0
77.222095028 52.0
77.255517565 47.0
77.288940103 57.0
77.322362640 59.0
77.355785177 46.0
77.389207714 40.0
77.422630252 47.0
77.456052789 61.0
77.489475326 63.0
77.522897863 48.0
77.556320401 57.0
77.589742938 88.0
77.623165475 57.0
77.656588012 64.0
77.690010550 48.0
77.723433087 55.0
77.756855624 48.0
77.790278161 49.0
77.823700699 58.0
77.857123236 45.0
77.890545773 59.0
77.923968310 60.0
77.957390848 44.0
77.990813385 58.0
78.024235922 47.0
78.057658459 39.0
78.091080997 44.0
78.124503534 44.0
78.157926071 51.0
78.191348608 37.0
78.224771145 32.0
78.258193683 45.0
78.291616220 27.0
78.325038757 37.0
78.358461294 27.0
78.391883832 38.0
78.425306369 34.0
78.458728906 27.0
78.492151443 31.0
78.525573981 35.0
78.558996518 25.0
78.592419055 27.0
78.625841592 23.0
78.659264130 22.0
78.692686667 10.0
78.726109204 22.0
78.759531741 22.0
78.792954279 19.0
78.826376816 16.0
78.859799353 25.0
78.893221890 17.0
78.926644428 21.0
78.960066965 23.0
78.993489502 12.0
79.026912039 17.0
79.060334577 19.0
79.093757114 20.0
79.127179651 8.0
79.160602188 16.0
79.194024726 13.0
79.227447263 8.0
79.260869800 16.0
79.294292337 17.0
79.327714874 19.0
79.361137412 24.0
79.394559949 18.0
79.427982486 9.0
79.461405023 11.0
79.494827561 4.0
79.528250098 16.0
79.561672635 6.0
79.595095172 13.0
79.628517710 8.0
79.661940247 13.0
79.695362784 16.0
79.728785321 13.0
79.762207859 11.0
79.795630396 15.0
79.829052933 10.0
79.862475470 12.0
79.895898008 18.0
79.929320545 10.0
79.962743082 12.0
79.996165619 15.0
80.029588157 18.0
80.063010694 15.0
80.096433231 16.0
80.129855768 9.0
80.163278306 11.0
80.196700843 9.0
80.230123380 12.0
80.263545917 20.0
80.296968454 12.0
80.330390992 18.0
80.363813529 11.0
80.397236066 9.0
80.430658603 11.0
80.464081141 13.0
80.497503678 8.0
80.530926215 9.0
80.564348752 11.0
80.597771290 15.0
80.631193827 7.0
80.664616364 11.0
80.698038901 9.0
80.731461439 12.0
80.764883976 11.0
80.798306513 11.0
80.831729050 11.0
80.865151588 10.0
80.898574125 10.0
80.931996662 9.0
80.965419199 13.0
80.998841737 21.0
81.032264274 10.0
81.065686811 8.0
81.099109348 10.0
81.132531886 10.0
81.165954423 12.0
81.199376960 13.0
81.232799497 8.0
81.266222035 7.0
81.299644572 15.0
81.333067109 5.0
81.366489646 7.0
81.399912183 8.0
81.433334721 11.0
81.466757258 13.0
81.500179795 16.0
81.533602332 6.0
81.567024870 7.0
81.600447407 12.0
81.633869944 15.0
81.667292481 10.0
81.700715019 20.0
81.734137556 11.0
81.767560093 8.0
81.800982630 13.0
81.834405168 21.0
81.867827705 7.0
81.901250242 12.0
81.934672779 10.0
81.968095317 8.0
82.001517854 12.0
82.034940391 12.0
82.068362928 18.0
82.101785466 5.0
82.135208003 19.0
82.168630540 9.0
82.202053077 15.0
82.235475615 12.0
82.268898152 10.0
82.302320689 10.0
82.335743226 13.0
82.369165763 6.0
82.402588301 12.0
82.436010838 8.0
82.469433375 9.0
82.502855912 8.0
82.536278450 9.0
82.569700987 12.0
82.603123524 19.0
82.636546061 16.0
82.669968599 9.0
82.703391136 16.0
82.736813673 9.0
82.770236210 9.0
82.803658748 17.0
82.837081285 15.0
82.870503822 9.0
82.903926359 8.0
82.937348897 10.0
82.970771434 10.0
83.004193971 9.0
83.037616508 10.0
83.071039046 6.0
83.104461583 15.0
83.137884120 17.0
83.171306657 10.0
83.204729195 15.0
83.238151732 13.0
83.271574269 15.0
83.304996806 11.0
83.338419344 9.0
83.371841881 16.0
83.405264418 18.0
83.438686955 9.0
83.472109492 9.0
83.505532030 10.0
83.538954567 7.0
83.572377104 16.0
83.605799641 10.0
83.639222179 16.0
83.672644716 13.0
83.706067253 15.0
83.739489790 10.0
83.772912328 6.0
83.806334865 10.0
83.839757402 18.0
83.873179939 10.0
83.906602477 15.0
83.940025014 11.0
83.973447551 11.0
84.006870088 8.0
84.040292626 7.0
84.073715163 19.0
84.107137700 9.0
84.140560237 10.0
84.173982775 13.0
84.207405312 11.0
84.240827849 19.0
84.274250386 6.0
84.307672924 12.0
84.341095461 10.0
84.374517998 13.0
84.407940535 12.0
84.441363072 15.0
84.474785610 15.0
84.508208147 8.0
84.541630684 11.0
84.575053221 12.0
84.608475759 16.0
84.641898296 15.0
84.675320833 17.0
84.708743370 7.0
84.742165908 11.0
84.775588445 12.0
84.809010982 15.0
84.842433519 15.0
84.875856057 13.0
84.909278594 15.0
84.942701131 13.0
84.976123668 12.0
85.009546206 9.0
85.042968743 13.0
85.076391280 15.0
85.109813817 10.0
85.143236355 8.0
85.176658892 11.0
85.210081429 12.0
85.243503966 17.0
85.276926504 16.0
85.310349041 9.0
85.343771578 12.0
85.377194115 12.0
85.410616653 18.0
85.444039190 9.0
85.477461727 20.0
85.510884264 18.0
85.544306801 11.0
85.577729339 13.0
85.611151876 1.0
85.644574413 16.0
85.677996950 12.0
85.711419488 16.0
85.744842025 11.0
85.778264562 10.0
85.811687099 9.0
85.845109637 10.0
85.878532174 11.0
85.911954711 7.0
85.945377248 13.0
85.978799786 19.0
86.012222323 11.0
86.045644860 12.0
86.079067397 17.0
86.112489935 16.0
86.145912472 16.0
86.179335009 15.0
86.212757546 23.0
86.246180084 17.0
86.279602621 17.0
86.313025158 19.0
86.346447695 15.0
86.379870233 16.0
86.413292770 11.0
86.446715307 10.0
86.480137844 12.0
86.513560381 13.0
86.546982919 17.0
86.580405456 10.0
86.613827993 22.0
86.647250530 9.0
86.680673068 12.0
86.714095605 9.0
86.747518142 16.0
86.780940679 15.0
86.814363217 20.0
86.847785754 17.0
86.881208291 22.0
86.914630828 13.0
86.948053366 23.0
86.981475903 16.0
87.014898440 12.0
87.048320977 13.0
87.081743515 22.0
87.115166052 17.0
87.148588589 22.0
87.182011126 26.0
87.215433664 20.0
87.248856201 19.0
87.282278738 18.0
87.315701275 12.0
87.349123813 15.0
87.382546350 17.0
87.415968887 13.0
87.449391424 18.0
87.482813962 22.0
87.516236499 10.0
87.549659036 15.0
87.583081573 13.0
87.616504110 15.0
87.649926648 16.0
87.683349185 19.0
87.716771722 18.0
87.750194259 22.0
87.783616797 12.0
87.817039334 17.0
87.850461871 13.0
87.883884408 19.0
87.917306946 16.0
87.950729483 12.0
87.984152020 22.0
88.017574557 16.0
88.050997095 22.0
88.084419632 12.0
88.117842169 21.0
88.151264706 20.0
88.184687244 19.0
88.218109781 29.0
88.251532318 21.0
88.284954855 15.0
88.318377393 21.0
88.351799930 19.0
88.385222467 16.0
88.418645004 20.0
88.452067542 16.0
88.485490079 18.0
88.518912616 26.0
88.552335153 13.0
88.585757690 15.0
88.619180228 29.0
88.652602765 27.0
88.686025302 16.0
88.719447839 22.0
88.752870377 25.0
88.786292914 18.0
88.819715451 29.0
88.853137988 18.0
88.886560526 22.0
88.919983063 17.0
88.953405600 25.0
88.986828137 24.0
89.020250675 15.0
89.053673212 19.0
89.087095749 20.0
89.120518286 19.0
89.153940824 35.0
89.187363361 25.0
89.220785898 17.0
89.254208435 22.0
89.287630973 25.0
89.321053510 18.0
89.354476047 27.0
89.387898584 30.0
89.421321122 35.0
89.454743659 20.0
89.488166196 21.0
89.521588733 18.0
89.555011271 23.0
89.588433808 33.0
89.621856345 35.0
89.655278882 24.0
89.688701419 24.0
89.722123957 19.0
89.755546494 30.0
89.788969031 20.0
89.822391568 33.0
89.855814106 35.0
89.889236643 47.0
89.922659180 46.0
89.956081717 57.0
89.989504255 71.0
90.022926792 59.0
90.056349329 69.0
90.089771866 69.0
90.123194404 53.0
90.156616941 64.0
90.190039478 72.0
90.223462015 61.0
90.256884553 54.0
90.290307090 60.0
90.323729627 50.0
90.357152164 48.0
90.390574702 57.0
90.423997239 53.0
90.457419776 61.0
90.490842313 58.0
90.524264851 59.0
90.557687388 59.0
90.591109925 66.0
90.624532462 74.0
90.657954999 64.0
90.691377537 75.0
90.724800074 79.0
90.758222611 68.0
90.791645148 71.0
90.825067686 86.0
90.858490223 65.0
90.891912760 69.0
90.925335297 77.0
90.958757835 78.0
90.992180372 75.0
91.025602909 63.0
91.059025446 83.0
91.092447984 80.0
91.125870521 68.0
91.159293058 87.0
91.192715595 85.0
91.226138133 90.0
91.259560670 83.0
91.292983207 87.0
91.326405744 86.0
91.359828282 80.0
91.393250819 79.0
91.426673356 83.0
91.460095893 82.0
91.493518431 97.0
91.526940968 110.0
91.560363505 65.0
91.593786042 97.0
91.627208580 81.0
91.660631117 105.0
91.694053654 101.0
91.727476191 101.0
91.760898728 96.0
91.794321266 102.0
91.827743803 89.0
91.861166340 92.0
91.894588877 119.0
91.928011415 114.0
91.961433952 113.0
91.994856489 128.0
92.028279026 127.0
92.061701564 132.0
92.095124101 157.0
92.128546638 162.0
92.161969175 131.0
92.195391713 149.0
92.228814250 159.0
92.262236787 174.0
92.295659324 173.0
92.329081862 181.0
92.362504399 177.0
92.395926936 155.0
92.429349473 170.0
92.462772011 162.0
92.496194548 207.0
92.529617085 183.0
92.563039622 236.0
92.596462160 231.0
92.629884697 237.0
92.663307234 243.0
92.696729771 226.0
92.730152308 219.0
92.763574846 234.0
92.796997383 222.0
92.830419920 227.0
92.863842457 242.0
92.897264995 230.0
92.930687532 271.0
92.964110069 260.0
92.997532606 276.0
93.030955144 280.0
93.064377681 270.0
93.097800218 290.0
93.131222755 326.0
93.164645293 297.0
93.198067830 341.0
93.231490367 360.0
93.264912904 349.0
93.298335442 403.0
93.331757979 406.0
93.365180516 429.0
93.398603053 513.0
93.432025591 628.0
93.465448128 810.0
93.498870665 897.0
93.532293202 1086.0
93.565715740 1037.0
93.599138277 1106.0
93.632560814 1121.0
93.665983351 1089.0
93.699405889 1138.0
93.732828426 1241.0
93.766250963 1418.0
93.799673500 1658.0
93.833096037 2002.0
93.866518575 2921.0
93.899941112 4030.0
93.933363649 6195.0
93.966786186 10372.0
94.000208724 22593.0
94.033631261 64444.0
94.067053798 130239.0
94.100476335 73302.0
94.133898873 28443.0
94.167321410 13270.0
94.200743947 8022.0
94.234166484 6681.0
94.267589022 7409.0
94.301011559 12180.0
94.334434096 29044.0
94.367856633 64010.0
94.401279171 49671.0
94.434701708 20318.0
94.468124245 8617.0
94.501546782 4711.0
94.534969320 3191.0
94.568391857 2272.0
94.601814394 1784.0
94.635236931 1471.0
94.668659469 1186.0
94.702082006 1042.0
94.735504543 991.0
94.768927080 903.0
94.802349617 737.0
94.835772155 654.0
94.869194692 592.0
94.902617229 586.0
94.936039766 547.0
94.969462304 505.0
95.002884841 431.0
95.036307378 447.0
95.069729915 408.0
95.103152453 403.0
95.136574990 386.0
95.169997527 373.0
95.203420064 366.0
95.236842602 324.0
95.270265139 342.0
95.303687676 334.0
95.337110213 311.0
95.370532751 304.0
95.403955288 283.0
95.437377825 270.0
95.470800362 299.0
95.504222900 280.0
95.537645437 248.0
95.571067974 238.0
95.604490511 250.0
95.637913049 238.0
95.671335586 228.0
95.704758123 238.0
95.738180660 208.0
95.771603198 240.0
95.805025735 235.0
95.838448272 232.0
95.871870809 230.0
95.905293346 186.0
95.938715884 187.0
95.972138421 200.0
96.005560958 208.0
96.038983495 211.0
96.072406033 185.0
96.105828570 181.0
96.139251107 149.0
96.172673644 167.0
96.206096182 167.0
96.239518719 159.0
96.272941256 150.0
96.306363793 164.0
96.339786331 138.0
96.373208868 167.0
96.406631405 119.0
96.440053942 115.0
96.473476480 157.0
96.506899017 127.0
96.540321554 156.0
96.573744091 167.0
96.607166629 113.0
96.640589166 144.0
96.674011703 141.0
96.707434240 141.0
96.740856778 117.0
96.774279315 143.0
96.807701852 114.0
96.841124389 115.0
96.874546926 105.0
96.907969464 115.0
96.941392001 108.0
96.974814538 114.0
97.008237075 106.0
97.041659613 117.0
97.075082150 95.0
97.108504687 100.0
97.141927224 114.0
97.175349762 114.0
97.208772299 104.0
97.242194836 96.0
97.275617373 95.0
97.309039911 91.0
97.342462448 87.0
97.375884985 99.0
97.409307522 72.0
97.442730060 85.0
97.476152597 100.0
97.509575134 85.0
97.542997671 80.0
97.576420209 91.0
97.609842746 91.0
97.643265283 71.0
97.676687820 95.0
97.710110358 100.0
97.743532895 81.0
97.776955432 73.0
97.810377969 79.0
97.843800507 63.0
97.877223044 78.0
97.910645581 74.0
97.944068118 69.0
97.977490655 65.0
98.010913193 75.0
98.044335730 76.0
98.077758267 69.0
98.111180804 66.0
98.144603342 72.0
98.178025879 63.0
98.211448416 75.0
98.244870953 71.0
98.278293491 45.0
98.311716028 65.0
98.345138565 71.0
98.378561102 71.0
98.411983640 69.0
98.445406177 69.0
98.478828714 73.0
98.512251251 76.0
98.545673789 65.0
98.579096326 51.0
98.612518863 60.0
98.645941400 46.0
98.679363938 57.0
98.712786475 61.0
98.746209012 51.0
98.779631549 43.0
98.813054087 59.0
98.846476624 54.0
98.879899161 53.0
98.913321698 60.0
98.946744235 57.0
98.980166773 29.0
99.013589310 40.0
99.047011847 48.0
99.080434384 48.0
99.113856922 46.0
99.147279459 30.0
99.180701996 43.0
99.214124533 37.0
99.247547071 37.0
99.280969608 40.0
99.314392145 47.0
99.347814682 57.0
99.381237220 46.0
99.414659757 41.0
99.448082294 46.0
99.481504831 44.0
99.514927369 38.0
99.548349906 35.0
99.581772443 43.0
99.615194980 27.0
99.648617518 31.0
99.682040055 36.0
99.715462592 44.0
99.748885129 31.0
99.782307667 38.0
99.815730204 35.0
99.849152741 29.0
99.882575278 21.0
99.915997816 27.0
99.949420353 31.0
99.982842890 30.0
