20.002711270 65.0
20.036133807 79.0
20.069556344 81.0
20.102978882 82.0
20.136401419 80.0
20.169823956 73.0
20.203246493 88.0
20.236669031 71.0
20.270091568 74.0
20.303514105 78.0
20.336936642 85.0
20.370359180 77.0
20.403781717 65.0
20.437204254 86.0
20.470626791 80.0
20.504049329 61.0
20.537471866 51.0
20.570894403 69.0
20.604316940 81.0
20.637739478 83.0
20.671162015 52.0
20.704584552 76.0
20.738007089 66.0
20.771429627 77.0
20.804852164 83.0
20.838274701 66.0
20.871697238 75.0
20.905119776 79.0
20.938542313 85.0
20.971964850 85.0
21.005387387 90.0
21.038809925 69.0
21.072232462 73.0
21.105654999 78.0
21.139077536 64.0
21.172500073 75.0
21.205922611 73.0
21.239345148 72.0
21.272767685 87.0
21.306190222 66.0
21.339612760 69.0
21.373035297 67.0
21.406457834 55.0
21.439880371 87.0
21.473302909 67.0
21.506725446 63.0
21.540147983 88.0
21.573570520 62.0
21.606993058 54.0
21.640415595 72.0
21.673838132 73.0
21.707260669 72.0
21.740683207 69.0
21.774105744 61.0
21.807528281 81.0
21.840950818 69.0
21.874373356 73.0
21.907795893 59.0
21.941218430 73.0
21.974640967 76.0
22.008063505 83.0
22.041486042 77.0
22.074908579 59.0
22.108331116 66.0
22.141753653 59.0
22.175176191 61.0
22.208598728 71.0
22.242021265 73.0
22.275443802 72.0
22.308866340 67.0
22.342288877 80.0
22.375711414 77.0
22.409133951 66.0
22.442556489 73.0
22.475979026 50.0
22.509401563 72.0
22.542824100 59.0
22.576246638 73.0
22.609669175 72.0
22.643091712 55.0
22.676514249 54.0
22.709936787 53.0
22.743359324 64.0
22.776781861 80.0
22.810204398 74.0
22.843626936 59.0
22.877049473 75.0
22.910472010 73.0
22.943894547 49.0
22.977317085 65.0
23.010739622 68.0
23.044162159 55.0
23.077584696 68.0
23.111007234 68.0
23.144429771 54.0
23.177852308 71.0
23.211274845 49.0
23.244697382 86.0
23.278119920 78.0
23.311542457 61.0
23.344964994 54.0
23.378387531 71.0
23.411810069 60.0
23.445232606 62.0
23.478655143 80.0
23.512077680 61.0
23.545500218 69.0
23.578922755 61.0
23.612345292 59.0
23.645767829 53.0
23.679190367 61.0
23.712612904 61.0
23.746035441 55.0
23.779457978 55.0
23.812880516 59.0
23.846303053 59.0
23.879725590 75.0
23.913148127 58.0
23.946570665 46.0
23.979993202 73.0
24.013415739 57.0
24.046838276 60.0
24.080260814 57.0
24.113683351 63.0
24.147105888 59.0
24.180528425 55.0
24.213950962 47.0
24.247373500 63.0
24.280796037 58.0
24.314218574 60.0
24.347641111 67.0
24.381063649 59.0
24.414486186 62.0
24.447908723 57.0
24.481331260 65.0
24.514753798 49.0
24.548176335 62.0
24.581598872 60.0
24.615021409 61.0
24.648443947 69.0
24.681866484 49.0
24.715289021 63.0
24.748711558 58.0
24.782134096 62.0
24.815556633 61.0
24.848979170 53.0
24.882401707 44.0
24.915824245 51.0
24.949246782 63.0
24.982669319 47.0
25.016091856 59.0
25.049514394 55.0
25.082936931 80.0
25.116359468 53.0
25.149782005 55.0
25.183204543 67.0
25.216627080 60.0
25.250049617 52.0
25.283472154 51.0
25.316894691 41.0
25.350317229 58.0
25.383739766 55.0
25.417162303 51.0
25.450584840 61.0
25.484007378 57.0
25.517429915 59.0
25.550852452 62.0
25.584274989 60.0
25.617697527 50.0
25.651120064 57.0
25.684542601 49.0
25.717965138 50.0
25.751387676 61.0
25.784810213 46.0
25.818232750 52.0
25.851655287 45.0
25.885077825 50.0
25.918500362 62.0
25.951922899 47.0
25.985345436 49.0
26.018767974 53.0
26.052190511 52.0
26.085613048 61.0
26.119035585 53.0
26.152458123 57.0
26.185880660 53.0
26.219303197 51.0
26.252725734 57.0
26.286148271 51.0
26.319570809 49.0
26.352993346 40.0
26.386415883 55.0
26.419838420 36.0
26.453260958 61.0
26.486683495 52.0
26.520106032 35.0
26.553528569 61.0
26.586951107 55.0
26.620373644 60.0
26.653796181 53.0
26.687218718 48.0
26.720641256 65.0
26.754063793 60.0
26.787486330 40.0
26.820908867 55.0
26.854331405 54.0
26.887753942 52.0
26.921176479 47.0
26.954599016 62.0
26.988021554 54.0
27.021444091 39.0
27.054866628 49.0
27.088289165 48.0
27.121711703 61.0
27.155134240 54.0
27.188556777 72.0
27.221979314 36.0
27.255401852 55.0
27.288824389 53.0
27.322246926 49.0
27.355669463 48.0
27.389092000 44.0
27.422514538 60.0
27.455937075 59.0
27.489359612 48.0
27.522782149 50.0
27.556204687 52.0
27.589627224 55.0
27.623049761 51.0
27.656472298 61.0
27.689894836 53.0
27.723317373 52.0
27.756739910 53.0
27.790162447 54.0
27.823584985 64.0
27.857007522 57.0
27.890430059 50.0
27.923852596 49.0
27.957275134 61.0
27.990697671 55.0
28.024120208 45.0
28.057542745 65.0
28.090965283 64.0
28.124387820 50.0
28.157810357 52.0
28.191232894 51.0
28.224655432 58.0
28.258077969 48.0
28.291500506 58.0
28.324923043 46.0
28.358345580 64.0
28.391768118 54.0
28.425190655 46.0
28.458613192 61.0
28.492035729 55.0
28.525458267 59.0
28.558880804 37.0
28.592303341 48.0
28.625725878 51.0
28.659148416 58.0
28.692570953 64.0
28.725993490 50.0
28.759416027 51.0
28.792838565 60.0
28.826261102 47.0
28.859683639 47.0
28.893106176 54.0
28.926528714 51.0
28.959951251 50.0
28.993373788 41.0
29.026796325 68.0
29.060218863 51.0
29.093641400 59.0
29.127063937 66.0
29.160486474 50.0
29.193909012 58.0
29.227331549 65.0
29.260754086 49.0
29.294176623 47.0
29.327599161 68.0
29.361021698 64.0
29.394444235 71.0
29.427866772 55.0
29.461289309 64.0
29.494711847 53.0
29.528134384 72.0
29.561556921 50.0
29.594979458 63.0
29.628401996 58.0
29.661824533 55.0
29.695247070 55.0
29.728669607 63.0
29.762092145 52.0
29.795514682 51.0
29.828937219 72.0
29.862359756 58.0
29.895782294 50.0
29.929204831 68.0
29.962627368 75.0
29.996049905 58.0
30.029472443 48.0
30.062894980 57.0
30.096317517 75.0
30.129740054 66.0
30.163162592 52.0
30.196585129 68.0
30.230007666 50.0
30.263430203 72.0
30.296852741 68.0
30.330275278 66.0
30.363697815 69.0
30.397120352 73.0
30.430542889 66.0
30.463965427 72.0
30.497387964 80.0
30.530810501 72.0
30.564233038 69.0
30.597655576 73.0
30.631078113 75.0
30.664500650 78.0
30.697923187 80.0
30.731345725 64.0
30.764768262 66.0
30.798190799 51.0
30.831613336 66.0
30.865035874 71.0
30.898458411 72.0
30.931880948 77.0
30.965303485 55.0
30.998726023 54.0
31.032148560 74.0
31.065571097 73.0
31.098993634 73.0
31.132416172 74.0
31.165838709 75.0
31.199261246 83.0
31.232683783 78.0
31.266106321 88.0
31.299528858 87.0
31.332951395 85.0
31.366373932 74.0
31.399796470 86.0
31.433219007 79.0
31.466641544 85.0
31.500064081 85.0
31.533486618 87.0
31.566909156 79.0
31.600331693 90.0
31.633754230 83.0
31.667176767 78.0
31.700599305 101.0
31.734021842 78.0
31.767444379 79.0
31.800866916 90.0
31.834289454 78.0
31.867711991 109.0
31.901134528 83.0
31.934557065 86.0
31.967979603 82.0
32.001402140 102.0
32.034824677 89.0
32.068247214 83.0
32.101669752 97.0
32.135092289 96.0
32.168514826 102.0
32.201937363 90.0
32.235359901 96.0
32.268782438 104.0
32.302204975 99.0
32.335627512 97.0
32.369050050 86.0
32.402472587 90.0
32.435895124 81.0
32.469317661 103.0
32.502740198 104.0
32.536162736 99.0
32.569585273 95.0
32.603007810 116.0
32.636430347 93.0
32.669852885 91.0
32.703275422 117.0
32.736697959 86.0
32.770120496 118.0
32.803543034 136.0
32.836965571 312.0
32.870388108 360.0
32.903810645 376.0
32.937233183 373.0
32.970655720 287.0
33.004078257 234.0
33.037500794 170.0
33.070923332 95.0
33.104345869 103.0
33.137768406 106.0
33.171190943 118.0
33.204613481 104.0
33.238036018 106.0
33.271458555 100.0
33.304881092 110.0
33.338303630 99.0
33.371726167 106.0
33.405148704 104.0
33.438571241 91.0
33.471993779 99.0
33.505416316 94.0
33.538838853 106.0
33.572261390 89.0
33.605683927 110.0
33.639106465 93.0
33.672529002 107.0
33.705951539 94.0
33.739374076 107.0
33.772796614 108.0
33.806219151 103.0
33.839641688 100.0
33.873064225 74.0
33.906486763 94.0
33.939909300 103.0
33.973331837 83.0
34.006754374 108.0
34.040176912 92.0
34.073599449 104.0
34.107021986 91.0
34.140444523 106.0
34.173867061 95.0
34.207289598 81.0
34.240712135 82.0
34.274134672 91.0
34.307557210 97.0
34.340979747 103.0
34.374402284 90.0
34.407824821 104.0
34.441247359 89.0
34.474669896 75.0
34.508092433 87.0
34.541514970 85.0
34.574937507 103.0
34.608360045 82.0
34.641782582 96.0
34.675205119 96.0
34.708627656 83.0
34.742050194 76.0
34.775472731 86.0
34.808895268 81.0
34.842317805 93.0
34.875740343 97.0
34.909162880 68.0
34.942585417 68.0
34.976007954 96.0
35.009430492 94.0
35.042853029 74.0
35.076275566 94.0
35.109698103 85.0
35.143120641 74.0
35.176543178 99.0
35.209965715 90.0
35.243388252 81.0
35.276810790 78.0
35.310233327 75.0
35.343655864 69.0
35.377078401 80.0
35.410500939 81.0
35.443923476 89.0
35.477346013 89.0
35.510768550 68.0
35.544191088 77.0
35.577613625 55.0
35.611036162 72.0
35.644458699 76.0
35.677881236 99.0
35.711303774 81.0
35.744726311 86.0
35.778148848 67.0
35.811571385 74.0
35.844993923 77.0
35.878416460 69.0
35.911838997 81.0
35.945261534 95.0
35.978684072 92.0
36.012106609 73.0
36.045529146 69.0
36.078951683 51.0
36.112374221 97.0
36.145796758 72.0
36.179219295 86.0
36.212641832 88.0
36.246064370 89.0
36.279486907 72.0
36.312909444 72.0
36.346331981 74.0
36.379754519 94.0
36.413177056 71.0
36.446599593 65.0
36.480022130 83.0
36.513444668 59.0
36.546867205 63.0
36.580289742 64.0
36.613712279 57.0
36.647134816 69.0
36.680557354 77.0
36.713979891 57.0
36.747402428 71.0
36.780824965 55.0
36.814247503 59.0
36.847670040 57.0
36.881092577 79.0
36.914515114 53.0
36.947937652 72.0
36.981360189 60.0
37.014782726 44.0
37.048205263 72.0
37.081627801 51.0
37.115050338 48.0
37.148472875 60.0
37.181895412 53.0
37.215317950 60.0
37.248740487 46.0
37.282163024 67.0
37.315585561 51.0
37.349008099 59.0
37.382430636 40.0
37.415853173 60.0
37.449275710 66.0
37.482698248 46.0
37.516120785 64.0
37.549543322 63.0
37.582965859 61.0
37.616388397 62.0
37.649810934 50.0
37.683233471 63.0
37.716656008 61.0
37.750078545 45.0
37.783501083 51.0
37.816923620 49.0
37.850346157 41.0
37.883768694 67.0
37.917191232 54.0
37.950613769 62.0
37.984036306 45.0
38.017458843 45.0
38.050881381 79.0
38.084303918 50.0
38.117726455 53.0
38.151148992 76.0
38.184571530 61.0
38.217994067 46.0
38.251416604 50.0
38.284839141 63.0
38.318261679 80.0
38.351684216 62.0
38.385106753 58.0
38.418529290 64.0
38.451951828 60.0
38.485374365 60.0
38.518796902 54.0
38.552219439 63.0
38.585641977 49.0
38.619064514 55.0
38.652487051 63.0
38.685909588 62.0
38.719332125 60.0
38.752754663 77.0
38.786177200 79.0
38.819599737 80.0
38.853022274 83.0
38.886444812 80.0
38.919867349 75.0
38.953289886 81.0
38.986712423 76.0
39.020134961 85.0
39.053557498 71.0
39.086980035 90.0
39.120402572 54.0
39.153825110 101.0
39.187247647 73.0
39.220670184 83.0
39.254092721 89.0
39.287515259 89.0
39.320937796 102.0
39.354360333 109.0
39.387782870 93.0
39.421205408 91.0
39.454627945 104.0
39.488050482 103.0
39.521473019 102.0
39.554895557 102.0
39.588318094 114.0
39.621740631 113.0
39.655163168 115.0
39.688585706 124.0
39.722008243 128.0
39.755430780 119.0
39.788853317 127.0
39.822275854 94.0
39.855698392 118.0
39.889120929 92.0
39.922543466 115.0
39.955966003 117.0
39.989388541 109.0
40.022811078 148.0
40.056233615 117.0
40.089656152 151.0
40.123078690 122.0
40.156501227 153.0
40.189923764 144.0
40.223346301 155.0
40.256768839 161.0
40.290191376 142.0
40.323613913 190.0
40.357036450 170.0
40.390458988 175.0
40.423881525 163.0
40.457304062 171.0
40.490726599 185.0
40.524149137 195.0
40.557571674 172.0
40.590994211 178.0
40.624416748 171.0
40.657839286 203.0
40.691261823 204.0
40.724684360 170.0
40.758106897 194.0
40.791529434 216.0
40.824951972 241.0
40.858374509 218.0
40.891797046 236.0
40.925219583 240.0
40.958642121 262.0
40.992064658 314.0
41.025487195 288.0
41.058909732 345.0
41.092332270 320.0
41.125754807 368.0
41.159177344 411.0
41.192599881 376.0
41.226022419 370.0
41.259444956 402.0
41.292867493 384.0
41.326290030 394.0
41.359712568 403.0
41.393135105 474.0
41.426557642 446.0
41.459980179 474.0
41.493402717 525.0
41.526825254 533.0
41.560247791 607.0
41.593670328 617.0
41.627092866 658.0
41.660515403 783.0
41.693937940 884.0
41.727360477 1006.0
41.760783015 1138.0
41.794205552 1233.0
41.827628089 1428.0
41.861050626 1610.0
41.894473163 1755.0
41.927895701 1871.0
41.961318238 2052.0
41.994740775 2208.0
42.028163312 2472.0
42.061585850 2599.0
42.095008387 2818.0
42.128430924 2889.0
42.161853461 3148.0
42.195275999 3291.0
42.228698536 3215.0
42.262121073 3406.0
42.295543610 3583.0
42.328966148 3591.0
42.362388685 3569.0
42.395811222 3586.0
42.429233759 3439.0
42.462656297 3580.0
42.496078834 3470.0
42.529501371 3355.0
42.562923908 3136.0
42.596346446 3017.0
42.629768983 2960.0
42.663191520 2894.0
42.696614057 2702.0
42.730036595 2500.0
42.763459132 2277.0
42.796881669 2026.0
42.830304206 1962.0
42.863726743 1752.0
42.897149281 1576.0
42.930571818 1480.0
42.963994355 1359.0
42.997416892 1283.0
43.030839430 1061.0
43.064261967 1045.0
43.097684504 820.0
43.131107041 804.0
43.164529579 734.0
43.197952116 686.0
43.231374653 557.0
43.264797190 538.0
43.298219728 521.0
43.331642265 456.0
43.365064802 420.0
43.398487339 377.0
43.431909877 346.0
43.465332414 339.0
43.498754951 301.0
43.532177488 287.0
43.565600026 270.0
43.599022563 237.0
43.632445100 248.0
43.665867637 201.0
43.699290175 215.0
43.732712712 193.0
43.766135249 185.0
43.799557786 166.0
43.832980324 197.0
43.866402861 138.0
43.899825398 129.0
43.933247935 144.0
43.966670472 131.0
44.000093010 134.0
44.033515547 97.0
44.066938084 110.0
44.100360621 106.0
44.133783159 117.0
44.167205696 104.0
44.200628233 90.0
44.234050770 93.0
44.267473308 78.0
44.300895845 71.0
44.334318382 80.0
44.367740919 85.0
44.401163457 65.0
44.434585994 68.0
44.468008531 60.0
44.501431068 61.0
44.534853606 61.0
44.568276143 57.0
44.601698680 60.0
44.635121217 57.0
44.668543755 54.0
44.701966292 60.0
44.735388829 48.0
44.768811366 60.0
44.802233904 39.0
44.835656441 41.0
44.869078978 62.0
44.902501515 35.0
44.935924052 47.0
44.969346590 59.0
45.002769127 39.0
45.036191664 36.0
45.069614201 36.0
45.103036739 39.0
45.136459276 40.0
45.169881813 34.0
45.203304350 36.0
45.236726888 39.0
45.270149425 34.0
45.303571962 35.0
45.336994499 45.0
45.370417037 36.0
45.403839574 32.0
45.437262111 43.0
45.470684648 35.0
45.504107186 37.0
45.537529723 29.0
45.570952260 31.0
45.604374797 40.0
45.637797335 29.0
45.671219872 20.0
45.704642409 32.0
45.738064946 25.0
45.771487484 32.0
45.804910021 26.0
45.838332558 25.0
45.871755095 29.0
45.905177633 29.0
45.938600170 25.0
45.972022707 21.0
46.005445244 24.0
46.038867781 30.0
46.072290319 21.0
46.105712856 37.0
46.139135393 26.0
46.172557930 26.0
46.205980468 34.0
46.239403005 20.0
46.272825542 22.0
46.306248079 35.0
46.339670617 20.0
46.373093154 38.0
46.406515691 19.0
46.439938228 18.0
46.473360766 11.0
46.506783303 22.0
46.540205840 20.0
46.573628377 29.0
46.607050915 29.0
46.640473452 15.0
46.673895989 22.0
46.707318526 13.0
46.740741064 17.0
46.774163601 16.0
46.807586138 23.0
46.841008675 23.0
46.874431213 19.0
46.907853750 16.0
46.941276287 23.0
46.974698824 22.0
47.008121362 25.0
47.041543899 16.0
47.074966436 31.0
47.108388973 25.0
47.141811510 32.0
47.175234048 20.0
47.208656585 21.0
47.242079122 22.0
47.275501659 13.0
47.308924197 12.0
47.342346734 12.0
47.375769271 21.0
47.409191808 9.0
47.442614346 19.0
47.476036883 7.0
47.509459420 18.0
47.542881957 9.0
47.576304495 13.0
47.609727032 10.0
47.643149569 16.0
47.676572106 13.0
47.709994644 13.0
47.743417181 19.0
47.776839718 19.0
47.810262255 19.0
47.843684793 19.0
47.877107330 13.0
47.910529867 20.0
47.943952404 8.0
47.977374942 23.0
48.010797479 31.0
48.044220016 15.0
48.077642553 20.0
48.111065090 18.0
48.144487628 15.0
48.177910165 9.0
48.211332702 13.0
48.244755239 9.0
48.278177777 7.0
48.311600314 16.0
48.345022851 21.0
48.378445388 20.0
48.411867926 22.0
48.445290463 24.0
48.478713000 23.0
48.512135537 8.0
48.545558075 17.0
48.578980612 18.0
48.612403149 12.0
48.645825686 15.0
48.679248224 12.0
48.712670761 19.0
48.746093298 23.0
48.779515835 10.0
48.812938373 11.0
48.846360910 12.0
48.879783447 11.0
48.913205984 13.0
48.946628522 19.0
48.980051059 20.0
49.013473596 9.0
49.046896133 12.0
49.080318671 18.0
49.113741208 17.0
49.147163745 10.0
49.180586282 16.0
49.214008819 20.0
49.247431357 15.0
49.280853894 7.0
49.314276431 13.0
49.347698968 12.0
49.381121506 9.0
49.414544043 10.0
49.447966580 13.0
49.481389117 5.0
49.514811655 11.0
49.548234192 11.0
49.581656729 20.0
49.615079266 18.0
49.648501804 7.0
49.681924341 17.0
49.715346878 21.0
49.748769415 18.0
49.782191953 16.0
49.815614490 12.0
49.849037027 13.0
49.882459564 17.0
49.915882102 19.0
49.949304639 17.0
49.982727176 13.0
50.016149713 16.0
50.049572251 12.0
50.082994788 12.0
50.116417325 13.0
50.149839862 10.0
50.183262399 12.0
50.216684937 16.0
50.250107474 13.0
50.283530011 10.0
50.316952548 15.0
50.350375086 11.0
50.383797623 10.0
50.417220160 9.0
50.450642697 13.0
50.484065235 11.0
50.517487772 16.0
50.550910309 16.0
50.584332846 13.0
50.617755384 15.0
50.651177921 10.0
50.684600458 11.0
50.718022995 10.0
50.751445533 16.0
50.784868070 11.0
50.818290607 6.0
50.851713144 13.0
50.885135682 16.0
50.918558219 17.0
50.951980756 19.0
50.985403293 15.0
51.018825831 12.0
51.052248368 11.0
51.085670905 11.0
51.119093442 6.0
51.152515980 15.0
51.185938517 12.0
51.219361054 7.0
51.252783591 7.0
51.286206128 17.0
51.319628666 10.0
51.353051203 12.0
51.386473740 17.0
51.419896277 15.0
51.453318815 15.0
51.486741352 15.0
51.520163889 13.0
51.553586426 10.0
51.587008964 12.0
51.620431501 17.0
51.653854038 18.0
51.687276575 17.0
51.720699113 8.0
51.754121650 11.0
51.787544187 21.0
51.820966724 9.0
51.854389262 13.0
51.887811799 17.0
51.921234336 13.0
51.954656873 12.0
51.988079411 18.0
52.021501948 11.0
52.054924485 12.0
52.088347022 8.0
52.121769560 10.0
52.155192097 12.0
52.188614634 17.0
52.222037171 16.0
52.255459708 12.0
52.288882246 18.0
52.322304783 8.0
52.355727320 10.0
52.389149857 13.0
52.422572395 15.0
52.455994932 9.0
52.489417469 8.0
52.522840006 16.0
52.556262544 20.0
52.589685081 17.0
52.623107618 11.0
52.656530155 15.0
52.689952693 11.0
52.723375230 7.0
52.756797767 8.0
52.790220304 16.0
52.823642842 13.0
52.857065379 21.0
52.890487916 11.0
52.923910453 12.0
52.957332991 8.0
52.990755528 8.0
53.024178065 15.0
53.057600602 12.0
53.091023140 11.0
53.124445677 9.0
53.157868214 11.0
53.191290751 11.0
53.224713289 11.0
53.258135826 15.0
53.291558363 18.0
53.324980900 12.0
53.358403437 8.0
53.391825975 13.0
53.425248512 7.0
53.458671049 11.0
53.492093586 15.0
53.525516124 10.0
53.558938661 6.0
53.592361198 10.0
53.625783735 15.0
53.659206273 13.0
53.692628810 11.0
53.726051347 12.0
53.759473884 12.0
53.792896422 13.0
53.826318959 16.0
53.859741496 8.0
53.893164033 11.0
53.926586571 10.0
53.960009108 13.0
53.993431645 12.0
54.026854182 6.0
54.060276720 16.0
54.093699257 11.0
54.127121794 11.0
54.160544331 13.0
54.193966869 11.0
54.227389406 18.0
54.260811943 17.0
54.294234480 12.0
54.327657017 7.0
54.361079555 15.0
54.394502092 15.0
54.427924629 8.0
54.461347166 12.0
54.494769704 10.0
54.528192241 12.0
54.561614778 6.0
54.595037315 12.0
54.628459853 10.0
54.661882390 12.0
54.695304927 12.0
54.728727464 9.0
54.762150002 13.0
54.795572539 18.0
54.828995076 10.0
54.862417613 11.0
54.895840151 8.0
54.929262688 18.0
54.962685225 9.0
54.996107762 19.0
55.029530300 15.0
55.062952837 16.0
55.096375374 8.0
55.129797911 9.0
55.163220449 15.0
55.196642986 5.0
55.230065523 17.0
55.263488060 7.0
55.296910598 12.0
55.330333135 10.0
55.363755672 7.0
55.397178209 10.0
55.430600746 11.0
55.464023284 5.0
55.497445821 9.0
55.530868358 12.0
55.564290895 11.0
55.597713433 20.0
55.631135970 11.0
55.664558507 10.0
55.697981044 22.0
55.731403582 10.0
55.764826119 10.0
55.798248656 13.0
55.831671193 11.0
55.865093731 4.0
55.898516268 9.0
55.931938805 17.0
55.965361342 11.0
55.998783880 12.0
56.032206417 9.0
56.065628954 15.0
56.099051491 15.0
56.132474029 10.0
56.165896566 6.0
56.199319103 17.0
56.232741640 19.0
56.266164178 15.0
56.299586715 9.0
56.333009252 6.0
56.366431789 12.0
56.399854326 12.0
56.433276864 10.0
56.466699401 11.0
56.500121938 8.0
56.533544475 10.0
56.566967013 8.0
56.600389550 12.0
56.633812087 12.0
56.667234624 11.0
56.700657162 9.0
56.734079699 9.0
56.767502236 13.0
56.800924773 5.0
56.834347311 13.0
56.867769848 4.0
56.901192385 15.0
56.934614922 16.0
56.968037460 2.0
57.001459997 15.0
57.034882534 11.0
57.068305071 16.0
57.101727609 12.0
57.135150146 17.0
57.168572683 16.0
57.201995220 8.0
57.235417758 9.0
57.268840295 9.0
57.302262832 12.0
57.335685369 7.0
57.369107907 10.0
57.402530444 7.0
57.435952981 8.0
57.469375518 20.0
57.502798055 10.0
57.536220593 10.0
57.569643130 11.0
57.603065667 13.0
57.636488204 5.0
57.669910742 4.0
57.703333279 15.0
57.736755816 19.0
57.770178353 13.0
57.803600891 11.0
57.837023428 13.0
57.870445965 12.0
57.903868502 13.0
57.937291040 11.0
57.970713577 10.0
58.004136114 5.0
58.037558651 9.0
58.070981189 12.0
58.104403726 7.0
58.137826263 7.0
58.171248800 15.0
58.204671338 7.0
58.238093875 8.0
58.271516412 9.0
58.304938949 13.0
58.338361487 10.0
58.371784024 11.0
58.405206561 13.0
58.438629098 18.0
58.472051635 12.0
58.505474173 16.0
58.538896710 16.0
58.572319247 10.0
58.605741784 10.0
58.639164322 9.0
58.672586859 15.0
58.706009396 15.0
58.739431933 12.0
58.772854471 10.0
58.806277008 12.0
58.839699545 11.0
58.873122082 12.0
58.906544620 11.0
58.939967157 18.0
58.973389694 12.0
59.006812231 10.0
59.040234769 12.0
59.073657306 12.0
59.107079843 10.0
59.140502380 13.0
59.173924918 13.0
59.207347455 13.0
59.240769992 4.0
59.274192529 12.0
59.307615067 8.0
59.341037604 9.0
59.374460141 13.0
59.407882678 4.0
59.441305216 6.0
59.474727753 8.0
59.508150290 11.0
59.541572827 17.0
59.574995364 13.0
59.608417902 10.0
59.641840439 18.0
59.675262976 19.0
59.708685513 13.0
59.742108051 16.0
59.775530588 4.0
59.808953125 13.0
59.842375662 12.0
59.875798200 11.0
59.909220737 9.0
59.942643274 13.0
59.976065811 13.0
60.009488349 9.0
60.042910886 13.0
60.076333423 13.0
60.109755960 13.0
60.143178498 8.0
60.176601035 13.0
60.210023572 6.0
60.243446109 7.0
60.276868647 18.0
60.310291184 10.0
60.343713721 10.0
60.377136258 8.0
60.410558796 10.0
60.443981333 9.0
60.477403870 12.0
60.510826407 11.0
60.544248944 21.0
60.577671482 20.0
60.611094019 15.0
60.644516556 11.0
60.677939093 13.0
60.711361631 12.0
60.744784168 9.0
60.778206705 12.0
60.811629242 9.0
60.845051780 13.0
60.878474317 16.0
60.911896854 8.0
60.945319391 18.0
60.978741929 18.0
61.012164466 16.0
61.045587003 11.0
61.079009540 13.0
61.112432078 15.0
61.145854615 20.0
61.179277152 18.0
61.212699689 12.0
61.246122227 16.0
61.279544764 17.0
61.312967301 7.0
61.346389838 21.0
61.379812376 19.0
61.413234913 16.0
61.446657450 11.0
61.480079987 12.0
61.513502525 19.0
61.546925062 12.0
61.580347599 9.0
61.613770136 18.0
61.647192673 10.0
61.680615211 9.0
61.714037748 18.0
61.747460285 18.0
61.780882822 6.0
61.814305360 17.0
61.847727897 12.0
61.881150434 27.0
61.914572971 13.0
61.947995509 20.0
61.981418046 12.0
62.014840583 10.0
62.048263120 11.0
62.081685658 10.0
62.115108195 13.0
62.148530732 15.0
62.181953269 11.0
62.215375807 12.0
62.248798344 13.0
62.282220881 12.0
62.315643418 8.0
62.349065956 15.0
62.382488493 17.0
62.415911030 10.0
62.449333567 4.0
62.482756105 13.0
62.516178642 16.0
62.549601179 22.0
62.583023716 15.0
62.616446253 16.0
62.649868791 18.0
62.683291328 12.0
62.716713865 8.0
62.750136402 10.0
62.783558940 11.0
62.816981477 16.0
62.850404014 13.0
62.883826551 12.0
62.917249089 16.0
62.950671626 18.0
62.984094163 11.0
63.017516700 8.0
63.050939238 12.0
63.084361775 17.0
63.117784312 15.0
63.151206849 16.0
63.184629387 19.0
63.218051924 18.0
63.251474461 19.0
63.284896998 10.0
63.318319536 8.0
63.351742073 20.0
63.385164610 9.0
63.418587147 16.0
63.452009685 17.0
63.485432222 12.0
63.518854759 16.0
63.552277296 17.0
63.585699834 13.0
63.619122371 16.0
63.652544908 11.0
63.685967445 15.0
63.719389982 9.0
63.752812520 20.0
63.786235057 10.0
63.819657594 20.0
63.853080131 13.0
63.886502669 10.0
63.919925206 16.0
63.953347743 16.0
63.986770280 13.0
64.020192818 17.0
64.053615355 17.0
64.087037892 26.0
64.120460429 12.0
64.153882967 19.0
64.187305504 11.0
64.220728041 18.0
64.254150578 17.0
64.287573116 21.0
64.320995653 20.0
64.354418190 29.0
64.387840727 23.0
64.421263265 16.0
64.454685802 17.0
64.488108339 23.0
64.521530876 24.0
64.554953414 21.0
64.588375951 13.0
64.621798488 25.0
64.655221025 24.0
64.688643562 17.0
64.722066100 13.0
64.755488637 18.0
64.788911174 19.0
64.822333711 19.0
64.855756249 22.0
64.889178786 20.0
64.922601323 24.0
64.956023860 15.0
64.989446398 27.0
65.022868935 29.0
65.056291472 21.0
65.089714009 29.0
65.123136547 15.0
65.156559084 22.0
65.189981621 24.0
65.223404158 31.0
65.256826696 12.0
65.290249233 21.0
65.323671770 20.0
65.357094307 21.0
65.390516845 23.0
65.423939382 30.0
65.457361919 29.0
65.490784456 24.0
65.524206994 32.0
65.557629531 23.0
65.591052068 23.0
65.624474605 31.0
65.657897143 26.0
65.691319680 31.0
65.724742217 22.0
65.758164754 35.0
65.791587291 17.0
65.825009829 26.0
65.858432366 35.0
65.891854903 26.0
65.925277440 27.0
65.958699978 26.0
65.992122515 29.0
66.025545052 30.0
66.058967589 34.0
66.092390127 24.0
66.125812664 32.0
66.159235201 29.0
66.192657738 29.0
66.226080276 41.0
66.259502813 40.0
66.292925350 30.0
66.326347887 53.0
66.359770425 91.0
66.393192962 146.0
66.426615499 204.0
66.460038036 186.0
66.493460574 194.0
66.526883111 176.0
66.560305648 172.0
66.593728185 162.0
66.627150723 147.0
66.660573260 167.0
66.693995797 180.0
66.727418334 177.0
66.760840871 167.0
66.794263409 170.0
66.827685946 163.0
66.861108483 197.0
66.894531020 189.0
66.927953558 203.0
66.961376095 181.0
66.994798632 227.0
67.028221169 207.0
67.061643707 231.0
67.095066244 235.0
67.128488781 238.0
67.161911318 223.0
67.195333856 240.0
67.228756393 237.0
67.262178930 255.0
67.295601467 229.0
67.329024005 274.0
67.362446542 263.0
67.395869079 292.0
67.429291616 250.0
67.462714154 272.0
67.496136691 286.0
67.529559228 291.0
67.562981765 301.0
67.596404303 299.0
67.629826840 296.0
67.663249377 341.0
67.696671914 290.0
67.730094452 355.0
67.763516989 359.0
67.796939526 333.0
67.830362063 399.0
67.863784600 333.0
67.897207138 328.0
67.930629675 383.0
67.964052212 405.0
67.997474749 439.0
68.030897287 489.0
68.064319824 486.0
68.097742361 430.0
68.131164898 422.0
68.164587436 522.0
68.198009973 508.0
68.231432510 525.0
68.264855047 568.0
68.298277585 605.0
68.331700122 616.0
68.365122659 720.0
68.398545196 698.0
68.431967734 680.0
68.465390271 735.0
68.498812808 799.0
68.532235345 878.0
68.565657883 1024.0
68.599080420 1171.0
68.632502957 1471.0
68.665925494 1865.0
68.699348032 2315.0
68.732770569 2712.0
68.766193106 2837.0
68.799615643 2807.0
68.833038180 3063.0
68.866460718 3582.0
68.899883255 4730.0
68.933305792 7494.0
68.966728329 16176.0
69.000150867 57573.0
69.033573404 116538.0
69.066995941 151697.0
69.100418478 146448.0
69.133841016 73682.0
69.167263553 27680.0
69.200686090 38097.0
69.234108627 62119.0
69.267531165 77531.0
69.300953702 72250.0
69.334376239 33565.0
69.367798776 10047.0
69.401221314 4808.0
69.434643851 3323.0
69.468066388 2361.0
69.501488925 1973.0
69.534911463 1629.0
69.568334000 1347.0
69.601756537 1270.0
69.635179074 1076.0
69.668601612 959.0
69.702024149 869.0
69.735446686 837.0
69.768869223 687.0
69.802291761 645.0
69.835714298 655.0
69.869136835 597.0
69.902559372 561.0
69.935981909 554.0
69.969404447 518.0
70.002826984 486.0
70.036249521 505.0
70.069672058 445.0
70.103094596 363.0
70.136517133 388.0
70.169939670 362.0
70.203362207 324.0
70.236784745 303.0
70.270207282 307.0
70.303629819 290.0
70.337052356 310.0
70.370474894 291.0
70.403897431 234.0
70.437319968 230.0
70.470742505 244.0
70.504165043 258.0
70.537587580 217.0
70.571010117 198.0
70.604432654 185.0
70.637855192 163.0
70.671277729 200.0
70.704700266 200.0
70.738122803 167.0
70.771545341 149.0
70.804967878 188.0
70.838390415 177.0
70.871812952 131.0
70.905235489 120.0
70.938658027 130.0
70.972080564 129.0
71.005503101 125.0
71.038925638 134.0
71.072348176 131.0
71.105770713 127.0
71.139193250 114.0
71.172615787 104.0
71.206038325 116.0
71.239460862 94.0
71.272883399 89.0
71.306305936 111.0
71.339728474 66.0
71.373151011 96.0
71.406573548 95.0
71.439996085 82.0
71.473418623 79.0
71.506841160 90.0
71.540263697 87.0
71.573686234 79.0
71.607108772 63.0
71.640531309 59.0
71.673953846 58.0
71.707376383 57.0
71.740798921 63.0
71.774221458 68.0
71.807643995 58.0
71.841066532 59.0
71.874489070 68.0
71.907911607 55.0
71.941334144 47.0
71.974756681 54.0
72.008179218 52.0
72.041601756 50.0
72.075024293 43.0
72.108446830 48.0
72.141869367 40.0
72.175291905 35.0
72.208714442 49.0
72.242136979 60.0
72.275559516 45.0
72.308982054 53.0
72.342404591 53.0
72.375827128 38.0
72.409249665 43.0
72.442672203 40.0
72.476094740 38.0
72.509517277 26.0
72.542939814 31.0
72.576362352 40.0
72.609784889 33.0
72.643207426 27.0
72.676629963 34.0
72.710052501 39.0
72.743475038 36.0
72.776897575 30.0
72.810320112 32.0
72.843742650 38.0
72.877165187 31.0
72.910587724 31.0
72.944010261 30.0
72.977432798 30.0
73.010855336 24.0
73.044277873 38.0
73.077700410 23.0
73.111122947 40.0
73.144545485 21.0
73.177968022 25.0
73.211390559 20.0
73.244813096 32.0
73.278235634 27.0
73.311658171 22.0
73.345080708 35.0
73.378503245 31.0
73.411925783 17.0
73.445348320 22.0
73.478770857 19.0
73.512193394 27.0
73.545615932 36.0
73.579038469 27.0
73.612461006 20.0
73.645883543 23.0
73.679306081 22.0
73.712728618 23.0
73.746151155 26.0
73.779573692 26.0
73.812996230 20.0
73.846418767 25.0
73.879841304 25.0
73.913263841 22.0
73.946686379 27.0
73.980108916 15.0
74.013531453 21.0
74.046953990 20.0
74.080376527 21.0
74.113799065 24.0
74.147221602 17.0
74.180644139 23.0
74.214066676 27.0
74.247489214 18.0
74.280911751 18.0
74.314334288 22.0
74.347756825 22.0
74.381179363 20.0
74.414601900 23.0
74.448024437 15.0
74.481446974 23.0
74.514869512 13.0
74.548292049 15.0
74.581714586 25.0
74.615137123 15.0
74.648559661 19.0
74.681982198 17.0
74.715404735 23.0
74.748827272 12.0
74.782249810 26.0
74.815672347 19.0
74.849094884 15.0
74.882517421 17.0
74.915939959 22.0
74.949362496 21.0
74.982785033 16.0
75.016207570 20.0
75.049630108 17.0
75.083052645 15.0
75.116475182 22.0
75.149897719 21.0
75.183320256 10.0
75.216742794 21.0
75.250165331 22.0
75.283587868 13.0
75.317010405 15.0
75.350432943 16.0
75.383855480 16.0
75.417278017 17.0
75.450700554 20.0
75.484123092 21.0
75.517545629 18.0
75.550968166 17.0
75.584390703 16.0
75.617813241 20.0
75.651235778 10.0
75.684658315 11.0
75.718080852 11.0
75.751503390 16.0
75.784925927 19.0
75.818348464 11.0
75.851771001 19.0
75.885193539 13.0
75.918616076 15.0
75.952038613 9.0
75.985461150 12.0
76.018883688 20.0
76.052306225 16.0
76.085728762 23.0
76.119151299 10.0
76.152573836 12.0
76.185996374 15.0
76.219418911 12.0
76.252841448 19.0
76.286263985 22.0
76.319686523 15.0
76.353109060 13.0
76.386531597 15.0
76.419954134 9.0
76.453376672 12.0
76.486799209 12.0
76.520221746 17.0
76.553644283 19.0
76.587066821 13.0
76.620489358 24.0
76.653911895 20.0
76.687334432 17.0
76.720756970 17.0
76.754179507 17.0
76.787602044 18.0
76.821024581 12.0
76.854447119 8.0
76.887869656 16.0
76.921292193 13.0
76.954714730 11.0
76.988137268 10.0
77.021559805 13.0
77.054982342 13.0
77.088404879 15.0
77.121827417 17.0
77.155249954 9.0
77.188672491 11.0
77.222095028 16.0
77.255517565 10.0
77.288940103 9.0
77.322362640 10.0
77.355785177 15.0
77.389207714 11.0
77.422630252 13.0
77.456052789 18.0
77.489475326 20.0
77.522897863 9.0
77.556320401 17.0
77.589742938 26.0
77.623165475 12.0
77.656588012 8.0
77.690010550 8.0
77.723433087 20.0
77.756855624 13.0
77.790278161 19.0
77.823700699 15.0
77.857123236 18.0
77.890545773 13.0
77.923968310 13.0
77.957390848 10.0
77.990813385 6.0
78.024235922 10.0
78.057658459 11.0
78.091080997 15.0
78.124503534 11.0
78.157926071 9.0
78.191348608 8.0
78.224771145 15.0
78.258193683 11.0
78.291616220 6.0
78.325038757 8.0
78.358461294 21.0
78.391883832 10.0
78.425306369 12.0
78.458728906 13.0
78.492151443 10.0
78.525573981 13.0
78.558996518 17.0
78.592419055 13.0
78.625841592 12.0
78.659264130 7.0
78.692686667 9.0
78.726109204 13.0
78.759531741 15.0
78.792954279 7.0
78.826376816 7.0
78.859799353 9.0
78.893221890 10.0
78.926644428 13.0
78.960066965 13.0
78.993489502 9.0
79.026912039 7.0
79.060334577 7.0
79.093757114 5.0
79.127179651 12.0
79.160602188 7.0
79.194024726 5.0
79.227447263 10.0
79.260869800 8.0
79.294292337 5.0
79.327714874 11.0
79.361137412 13.0
79.394559949 11.0
79.427982486 15.0
79.461405023 15.0
79.494827561 12.0
79.528250098 7.0
79.561672635 9.0
79.595095172 12.0
79.628517710 11.0
79.661940247 8.0
79.695362784 5.0
79.728785321 21.0
79.762207859 15.0
79.795630396 10.0
79.829052933 13.0
79.862475470 6.0
79.895898008 11.0
79.929320545 12.0
79.962743082 19.0
79.996165619 10.0
80.029588157 11.0
80.063010694 8.0
80.096433231 9.0
80.129855768 5.0
80.163278306 6.0
80.196700843 10.0
80.230123380 10.0
80.263545917 12.0
80.296968454 10.0
80.330390992 8.0
80.363813529 7.0
80.397236066 11.0
80.430658603 5.0
80.464081141 8.0
80.497503678 8.0
80.530926215 7.0
80.564348752 11.0
80.597771290 8.0
80.631193827 10.0
80.664616364 12.0
80.698038901 4.0
80.731461439 7.0
80.764883976 5.0
80.798306513 9.0
80.831729050 13.0
80.865151588 5.0
80.898574125 9.0
80.931996662 7.0
80.965419199 8.0
80.998841737 8.0
81.032264274 8.0
81.065686811 11.0
81.099109348 12.0
81.132531886 16.0
81.165954423 10.0
81.199376960 16.0
81.232799497 5.0
81.266222035 9.0
81.299644572 13.0
81.333067109 7.0
81.366489646 10.0
81.399912183 6.0
81.433334721 12.0
81.466757258 13.0
81.500179795 11.0
81.533602332 10.0
81.567024870 5.0
81.600447407 6.0
81.633869944 10.0
81.667292481 9.0
81.700715019 17.0
81.734137556 10.0
81.767560093 9.0
81.800982630 15.0
81.834405168 6.0
81.867827705 5.0
81.901250242 10.0
81.934672779 13.0
81.968095317 5.0
82.001517854 11.0
82.034940391 9.0
82.068362928 9.0
82.101785466 5.0
82.135208003 10.0
82.168630540 10.0
82.202053077 12.0
82.235475615 8.0
82.268898152 5.0
82.302320689 8.0
82.335743226 8.0
82.369165763 5.0
82.402588301 4.0
82.436010838 9.0
82.469433375 12.0
82.502855912 11.0
82.536278450 7.0
82.569700987 3.0
82.603123524 9.0
82.636546061 9.0
82.669968599 6.0
82.703391136 9.0
82.736813673 11.0
82.770236210 6.0
82.803658748 10.0
82.837081285 12.0
82.870503822 10.0
82.903926359 9.0
82.937348897 12.0
82.970771434 10.0
83.004193971 7.0
83.037616508 10.0
83.071039046 5.0
83.104461583 8.0
83.137884120 13.0
83.171306657 10.0
83.204729195 9.0
83.238151732 7.0
83.271574269 10.0
83.304996806 12.0
83.338419344 5.0
83.371841881 9.0
83.405264418 4.0
83.438686955 6.0
83.472109492 12.0
83.505532030 12.0
83.538954567 11.0
83.572377104 12.0
83.605799641 6.0
83.639222179 9.0
83.672644716 13.0
83.706067253 5.0
83.739489790 8.0
83.772912328 17.0
83.806334865 9.0
83.839757402 9.0
83.873179939 8.0
83.906602477 15.0
83.940025014 8.0
83.973447551 7.0
84.006870088 10.0
84.040292626 10.0
84.073715163 9.0
84.107137700 9.0
84.140560237 8.0
84.173982775 7.0
84.207405312 5.0
84.240827849 13.0
84.274250386 5.0
84.307672924 6.0
84.341095461 9.0
84.374517998 10.0
84.407940535 11.0
84.441363072 10.0
84.474785610 8.0
84.508208147 5.0
84.541630684 4.0
84.575053221 12.0
84.608475759 9.0
84.641898296 5.0
84.675320833 11.0
84.708743370 6.0
84.742165908 7.0
84.775588445 7.0
84.809010982 4.0
84.842433519 6.0
84.875856057 8.0
84.909278594 13.0
84.942701131 13.0
84.976123668 10.0
85.009546206 7.0
85.042968743 7.0
85.076391280 13.0
85.109813817 6.0
85.143236355 7.0
85.176658892 11.0
85.210081429 4.0
85.243503966 12.0
85.276926504 13.0
85.310349041 7.0
85.343771578 12.0
85.377194115 5.0
85.410616653 8.0
85.444039190 11.0
85.477461727 8.0
85.510884264 15.0
85.544306801 8.0
85.577729339 12.0
85.611151876 4.0
85.644574413 11.0
85.677996950 15.0
85.711419488 6.0
85.744842025 9.0
85.778264562 8.0
85.811687099 12.0
85.845109637 8.0
85.878532174 6.0
85.911954711 8.0
85.945377248 6.0
85.978799786 7.0
86.012222323 11.0
86.045644860 4.0
86.079067397 6.0
86.112489935 16.0
86.145912472 8.0
86.179335009 12.0
86.212757546 10.0
86.246180084 12.0
86.279602621 8.0
86.313025158 3.0
86.346447695 11.0
86.379870233 6.0
86.413292770 4.0
86.446715307 8.0
86.480137844 7.0
86.513560381 7.0
86.546982919 5.0
86.580405456 8.0
86.613827993 16.0
86.647250530 5.0
86.680673068 5.0
86.714095605 10.0
86.747518142 5.0
86.780940679 8.0
86.814363217 13.0
86.847785754 15.0
86.881208291 7.0
86.914630828 12.0
86.948053366 11.0
86.981475903 9.0
87.014898440 10.0
87.048320977 10.0
87.081743515 2.0
87.115166052 10.0
87.148588589 7.0
87.182011126 6.0
87.215433664 6.0
87.248856201 5.0
87.282278738 10.0
87.315701275 9.0
87.349123813 8.0
87.382546350 10.0
87.415968887 7.0
87.449391424 9.0
87.482813962 10.0
87.516236499 5.0
87.549659036 9.0
87.583081573 4.0
87.616504110 11.0
87.649926648 3.0
87.683349185 10.0
87.716771722 9.0
87.750194259 12.0
87.783616797 6.0
87.817039334 10.0
87.850461871 8.0
87.883884408 8.0
87.917306946 8.0
87.950729483 8.0
87.984152020 17.0
88.017574557 15.0
88.050997095 8.0
88.084419632 9.0
88.117842169 8.0
88.151264706 7.0
88.184687244 12.0
88.218109781 6.0
88.251532318 9.0
88.284954855 10.0
88.318377393 5.0
88.351799930 9.0
88.385222467 5.0
88.418645004 6.0
88.452067542 10.0
88.485490079 9.0
88.518912616 4.0
88.552335153 3.0
88.585757690 11.0
88.619180228 9.0
88.652602765 10.0
88.686025302 9.0
88.719447839 9.0
88.752870377 13.0
88.786292914 7.0
88.819715451 10.0
88.853137988 13.0
88.886560526 12.0
88.919983063 9.0
88.953405600 8.0
88.986828137 5.0
89.020250675 16.0
89.053673212 8.0
89.087095749 4.0
89.120518286 15.0
89.153940824 5.0
89.187363361 9.0
89.220785898 9.0
89.254208435 12.0
89.287630973 9.0
89.321053510 16.0
89.354476047 8.0
89.387898584 13.0
89.421321122 6.0
89.454743659 12.0
89.488166196 12.0
89.521588733 12.0
89.555011271 12.0
89.588433808 17.0
89.621856345 12.0
89.655278882 9.0
89.688701419 13.0
89.722123957 11.0
89.755546494 9.0
89.788969031 15.0
89.822391568 11.0
89.855814106 12.0
89.889236643 11.0
89.922659180 19.0
89.956081717 10.0
89.989504255 13.0
90.022926792 12.0
90.056349329 11.0
90.089771866 11.0
90.123194404 8.0
90.156616941 4.0
90.190039478 16.0
90.223462015 15.0
90.256884553 13.0
90.290307090 18.0
90.323729627 11.0
90.357152164 13.0
90.390574702 10.0
90.423997239 11.0
90.457419776 20.0
90.490842313 13.0
90.524264851 18.0
90.557687388 9.0
90.591109925 16.0
90.624532462 9.0
90.657954999 24.0
90.691377537 29.0
90.724800074 16.0
90.758222611 13.0
90.791645148 21.0
90.825067686 10.0
90.858490223 22.0
90.891912760 20.0
90.925335297 17.0
90.958757835 15.0
90.992180372 11.0
91.025602909 19.0
91.059025446 22.0
91.092447984 16.0
91.125870521 22.0
91.159293058 26.0
91.192715595 20.0
91.226138133 11.0
91.259560670 20.0
91.292983207 20.0
91.326405744 30.0
91.359828282 17.0
91.393250819 23.0
91.426673356 32.0
91.460095893 20.0
91.493518431 20.0
91.526940968 25.0
91.560363505 24.0
91.593786042 32.0
91.627208580 31.0
91.660631117 32.0
91.694053654 45.0
91.727476191 35.0
91.760898728 37.0
91.794321266 40.0
91.827743803 38.0
91.861166340 40.0
91.894588877 46.0
91.928011415 48.0
91.961433952 39.0
91.994856489 54.0
92.028279026 52.0
92.061701564 48.0
92.095124101 55.0
92.128546638 57.0
92.161969175 61.0
92.195391713 52.0
92.228814250 59.0
92.262236787 60.0
92.295659324 65.0
92.329081862 50.0
92.362504399 62.0
92.395926936 77.0
92.429349473 91.0
92.462772011 71.0
92.496194548 63.0
92.529617085 89.0
92.563039622 67.0
92.596462160 91.0
92.629884697 74.0
92.663307234 72.0
92.696729771 79.0
92.730152308 74.0
92.763574846 85.0
92.796997383 96.0
92.830419920 69.0
92.863842457 83.0
92.897264995 80.0
92.930687532 93.0
92.964110069 71.0
92.997532606 79.0
93.030955144 92.0
93.064377681 87.0
93.097800218 69.0
93.131222755 72.0
93.164645293 69.0
93.198067830 60.0
93.231490367 81.0
93.264912904 65.0
93.298335442 62.0
93.331757979 72.0
93.365180516 71.0
93.398603053 45.0
93.432025591 51.0
93.465448128 54.0
93.498870665 60.0
93.532293202 53.0
93.565715740 61.0
93.599138277 46.0
93.632560814 39.0
93.665983351 47.0
93.699405889 47.0
93.732828426 39.0
93.766250963 50.0
93.799673500 46.0
93.833096037 39.0
93.866518575 37.0
93.899941112 40.0
93.933363649 34.0
93.966786186 54.0
94.000208724 32.0
94.033631261 37.0
94.067053798 41.0
94.100476335 23.0
94.133898873 27.0
94.167321410 41.0
94.200743947 26.0
94.234166484 30.0
94.267589022 24.0
94.301011559 26.0
94.334434096 33.0
94.367856633 27.0
94.401279171 19.0
94.434701708 22.0
94.468124245 27.0
94.501546782 16.0
94.534969320 22.0
94.568391857 23.0
94.601814394 20.0
94.635236931 19.0
94.668659469 16.0
94.702082006 13.0
94.735504543 10.0
94.768927080 15.0
94.802349617 17.0
94.835772155 18.0
94.869194692 26.0
94.902617229 17.0
94.936039766 16.0
94.969462304 18.0
95.002884841 17.0
95.036307378 8.0
95.069729915 17.0
95.103152453 12.0
95.136574990 10.0
95.169997527 11.0
95.203420064 17.0
95.236842602 8.0
95.270265139 9.0
95.303687676 12.0
95.337110213 16.0
95.370532751 13.0
95.403955288 15.0
95.437377825 8.0
95.470800362 9.0
95.504222900 9.0
95.537645437 15.0
95.571067974 3.0
95.604490511 15.0
95.637913049 5.0
95.671335586 17.0
95.704758123 15.0
95.738180660 15.0
95.771603198 9.0
95.805025735 10.0
95.838448272 8.0
95.871870809 9.0
95.905293346 6.0
95.938715884 8.0
95.972138421 6.0
96.005560958 15.0
96.038983495 6.0
96.072406033 7.0
96.105828570 11.0
96.139251107 10.0
96.172673644 11.0
96.206096182 13.0
96.239518719 16.0
96.272941256 12.0
96.306363793 5.0
96.339786331 10.0
96.373208868 9.0
96.406631405 7.0
96.440053942 7.0
96.473476480 11.0
96.506899017 12.0
96.540321554 9.0
96.573744091 8.0
96.607166629 3.0
96.640589166 8.0
96.674011703 5.0
96.707434240 8.0
96.740856778 17.0
96.774279315 9.0
96.807701852 6.0
96.841124389 7.0
96.874546926 6.0
96.907969464 19.0
96.941392001 7.0
96.974814538 8.0
97.008237075 7.0
97.041659613 6.0
97.075082150 13.0
97.108504687 10.0
97.141927224 7.0
97.175349762 9.0
97.208772299 8.0
97.242194836 10.0
97.275617373 7.0
97.309039911 9.0
97.342462448 8.0
97.375884985 9.0
97.409307522 7.0
97.442730060 13.0
97.476152597 6.0
97.509575134 8.0
97.542997671 8.0
97.576420209 4.0
97.609842746 8.0
97.643265283 6.0
97.676687820 4.0
97.710110358 9.0
97.743532895 5.0
97.776955432 6.0
97.810377969 5.0
97.843800507 9.0
97.877223044 6.0
97.910645581 4.0
97.944068118 9.0
97.977490655 6.0
98.010913193 9.0
98.044335730 4.0
98.077758267 5.0
98.111180804 4.0
98.144603342 7.0
98.178025879 10.0
98.211448416 4.0
98.244870953 7.0
98.278293491 8.0
98.311716028 6.0
98.345138565 8.0
98.378561102 7.0
98.411983640 7.0
98.445406177 7.0
98.478828714 6.0
98.512251251 9.0
98.545673789 7.0
98.579096326 9.0
98.612518863 6.0
98.645941400 8.0
98.679363938 7.0
98.712786475 8.0
98.746209012 4.0
98.779631549 12.0
98.813054087 4.0
98.846476624 9.0
98.879899161 7.0
98.913321698 9.0
98.946744235 4.0
98.980166773 6.0
99.013589310 9.0
99.047011847 10.0
99.080434384 9.0
99.113856922 6.0
99.147279459 7.0
99.180701996 5.0
99.214124533 4.0
99.247547071 7.0
99.280969608 5.0
99.314392145 11.0
99.347814682 9.0
99.381237220 8.0
99.414659757 4.0
99.448082294 2.0
99.481504831 7.0
99.514927369 8.0
99.548349906 11.0
99.581772443 6.0
99.615194980 5.0
99.648617518 7.0
99.682040055 9.0
99.715462592 7.0
99.748885129 8.0
99.782307667 6.0
99.815730204 8.0
99.849152741 8.0
99.882575278 6.0
99.915997816 9.0
99.949420353 10.0
99.982842890 9.0
