20.002711270 88.0
20.036133807 110.0
20.069556344 83.0
20.102978882 101.0
20.136401419 89.0
20.169823956 94.0
20.203246493 81.0
20.236669031 81.0
20.270091568 97.0
20.303514105 97.0
20.336936642 74.0
20.370359180 95.0
20.403781717 83.0
20.437204254 87.0
20.470626791 87.0
20.504049329 81.0
20.537471866 74.0
20.570894403 92.0
20.604316940 85.0
20.637739478 85.0
20.671162015 71.0
20.704584552 76.0
20.738007089 83.0
20.771429627 85.0
20.804852164 85.0
20.838274701 86.0
20.871697238 81.0
20.905119776 79.0
20.938542313 89.0
20.971964850 89.0
21.005387387 73.0
21.038809925 88.0
21.072232462 76.0
21.105654999 97.0
21.139077536 76.0
21.172500073 72.0
21.205922611 67.0
21.239345148 69.0
21.272767685 67.0
21.306190222 85.0
21.339612760 78.0
21.373035297 82.0
21.406457834 78.0
21.439880371 67.0
21.473302909 75.0
21.506725446 68.0
21.540147983 92.0
21.573570520 89.0
21.606993058 68.0
21.640415595 85.0
21.673838132 82.0
21.707260669 78.0
21.740683207 75.0
21.774105744 87.0
21.807528281 55.0
21.840950818 78.0
21.874373356 85.0
21.907795893 74.0
21.941218430 66.0
21.974640967 69.0
22.008063505 78.0
22.041486042 71.0
22.074908579 92.0
22.108331116 90.0
22.141753653 86.0
22.175176191 78.0
22.208598728 69.0
22.242021265 63.0
22.275443802 75.0
22.308866340 67.0
22.342288877 87.0
22.375711414 64.0
22.409133951 63.0
22.442556489 66.0
22.475979026 64.0
22.509401563 63.0
22.542824100 53.0
22.576246638 75.0
22.609669175 64.0
22.643091712 54.0
22.676514249 77.0
22.709936787 74.0
22.743359324 66.0
22.776781861 74.0
22.810204398 71.0
22.843626936 68.0
22.877049473 74.0
22.910472010 75.0
22.943894547 79.0
22.977317085 69.0
23.010739622 80.0
23.044162159 68.0
23.077584696 78.0
23.111007234 66.0
23.144429771 62.0
23.177852308 68.0
23.211274845 58.0
23.244697382 60.0
23.278119920 82.0
23.311542457 60.0
23.344964994 79.0
23.378387531 66.0
23.411810069 74.0
23.445232606 71.0
23.478655143 65.0
23.512077680 59.0
23.545500218 78.0
23.578922755 58.0
23.612345292 68.0
23.645767829 69.0
23.679190367 54.0
23.712612904 63.0
23.746035441 67.0
23.779457978 82.0
23.812880516 76.0
23.846303053 67.0
23.879725590 69.0
23.913148127 55.0
23.946570665 69.0
23.979993202 59.0
24.013415739 65.0
24.046838276 63.0
24.080260814 60.0
24.113683351 51.0
24.147105888 88.0
24.180528425 52.0
24.213950962 62.0
24.247373500 65.0
24.280796037 65.0
24.314218574 64.0
24.347641111 61.0
24.381063649 57.0
24.414486186 55.0
24.447908723 69.0
24.481331260 68.0
24.514753798 68.0
24.548176335 67.0
24.581598872 60.0
24.615021409 60.0
24.648443947 57.0
24.681866484 75.0
24.715289021 65.0
24.748711558 62.0
24.782134096 65.0
24.815556633 60.0
24.848979170 71.0
24.882401707 61.0
24.915824245 55.0
24.949246782 68.0
24.982669319 69.0
25.016091856 54.0
25.049514394 50.0
25.082936931 71.0
25.116359468 55.0
25.149782005 65.0
25.183204543 67.0
25.216627080 49.0
25.250049617 58.0
25.283472154 61.0
25.316894691 61.0
25.350317229 50.0
25.383739766 71.0
25.417162303 65.0
25.450584840 58.0
25.484007378 60.0
25.517429915 47.0
25.550852452 59.0
25.584274989 62.0
25.617697527 54.0
25.651120064 49.0
25.684542601 71.0
25.717965138 62.0
25.751387676 63.0
25.784810213 45.0
25.818232750 53.0
25.851655287 50.0
25.885077825 60.0
25.918500362 52.0
25.951922899 61.0
25.985345436 61.0
26.018767974 63.0
26.052190511 55.0
26.085613048 55.0
26.119035585 55.0
26.152458123 62.0
26.185880660 51.0
26.219303197 60.0
26.252725734 58.0
26.286148271 72.0
26.319570809 47.0
26.352993346 53.0
26.386415883 60.0
26.419838420 62.0
26.453260958 50.0
26.486683495 50.0
26.520106032 57.0
26.553528569 62.0
26.586951107 71.0
26.620373644 59.0
26.653796181 71.0
26.687218718 52.0
26.720641256 60.0
26.754063793 57.0
26.787486330 50.0
26.820908867 51.0
26.854331405 59.0
26.887753942 44.0
26.921176479 48.0
26.954599016 52.0
26.988021554 62.0
27.021444091 53.0
27.054866628 66.0
27.088289165 53.0
27.121711703 43.0
27.155134240 54.0
27.188556777 50.0
27.221979314 47.0
27.255401852 49.0
27.288824389 59.0
27.322246926 52.0
27.355669463 51.0
27.389092000 60.0
27.422514538 50.0
27.455937075 75.0
27.489359612 62.0
27.522782149 73.0
27.556204687 76.0
27.589627224 64.0
27.623049761 54.0
27.656472298 73.0
27.689894836 58.0
27.723317373 49.0
27.756739910 45.0
27.790162447 53.0
27.823584985 57.0
27.857007522 58.0
27.890430059 51.0
27.923852596 66.0
27.957275134 34.0
27.990697671 47.0
28.024120208 58.0
28.057542745 47.0
28.090965283 53.0
28.124387820 61.0
28.157810357 46.0
28.191232894 53.0
28.224655432 44.0
28.258077969 53.0
28.291500506 57.0
28.324923043 59.0
28.358345580 57.0
28.391768118 46.0
28.425190655 53.0
28.458613192 69.0
28.492035729 47.0
28.525458267 60.0
28.558880804 58.0
28.592303341 62.0
28.625725878 49.0
28.659148416 53.0
28.692570953 45.0
28.725993490 58.0
28.759416027 55.0
28.792838565 48.0
28.826261102 69.0
28.859683639 46.0
28.893106176 53.0
28.926528714 68.0
28.959951251 58.0
28.993373788 50.0
29.026796325 52.0
29.060218863 60.0
29.093641400 50.0
29.127063937 74.0
29.160486474 57.0
29.193909012 67.0
29.227331549 47.0
29.260754086 54.0
29.294176623 66.0
29.327599161 60.0
29.361021698 52.0
29.394444235 51.0
29.427866772 66.0
29.461289309 45.0
29.494711847 71.0
29.528134384 48.0
29.561556921 54.0
29.594979458 58.0
29.628401996 60.0
29.661824533 59.0
29.695247070 62.0
29.728669607 60.0
29.762092145 50.0
29.795514682 54.0
29.828937219 67.0
29.862359756 62.0
29.895782294 63.0
29.929204831 61.0
29.962627368 63.0
29.996049905 59.0
30.029472443 57.0
30.062894980 64.0
30.096317517 60.0
30.129740054 57.0
30.163162592 62.0
30.196585129 67.0
30.230007666 50.0
30.263430203 60.0
30.296852741 58.0
30.330275278 52.0
30.363697815 54.0
30.397120352 60.0
30.430542889 69.0
30.463965427 65.0
30.497387964 67.0
30.530810501 85.0
30.564233038 66.0
30.597655576 79.0
30.631078113 62.0
30.664500650 60.0
30.697923187 66.0
30.731345725 69.0
30.764768262 68.0
30.798190799 59.0
30.831613336 62.0
30.865035874 65.0
30.898458411 53.0
30.931880948 68.0
30.965303485 68.0
30.998726023 78.0
31.032148560 72.0
31.065571097 76.0
31.098993634 60.0
31.132416172 80.0
31.165838709 74.0
31.199261246 82.0
31.232683783 61.0
31.266106321 67.0
31.299528858 82.0
31.332951395 73.0
31.366373932 72.0
31.399796470 57.0
31.433219007 87.0
31.466641544 80.0
31.500064081 82.0
31.533486618 78.0
31.566909156 75.0
31.600331693 76.0
31.633754230 71.0
31.667176767 92.0
31.700599305 105.0
31.734021842 96.0
31.767444379 96.0
31.800866916 97.0
31.834289454 71.0
31.867711991 109.0
31.901134528 99.0
31.934557065 86.0
31.967979603 105.0
32.001402140 119.0
32.034824677 95.0
32.068247214 88.0
32.101669752 111.0
32.135092289 96.0
32.168514826 94.0
32.201937363 108.0
32.235359901 105.0
32.268782438 104.0
32.302204975 96.0
32.335627512 92.0
32.369050050 95.0
32.402472587 89.0
32.435895124 116.0
32.469317661 108.0
32.502740198 100.0
32.536162736 101.0
32.569585273 114.0
32.603007810 119.0
32.636430347 121.0
32.669852885 118.0
32.703275422 113.0
32.736697959 103.0
32.770120496 97.0
32.803543034 130.0
32.836965571 113.0
32.870388108 116.0
32.903810645 116.0
32.937233183 100.0
32.970655720 105.0
33.004078257 105.0
33.037500794 125.0
33.070923332 118.0
33.104345869 132.0
33.137768406 120.0
33.171190943 105.0
33.204613481 124.0
33.238036018 115.0
33.271458555 104.0
33.304881092 117.0
33.338303630 122.0
33.371726167 131.0
33.405148704 96.0
33.438571241 129.0
33.471993779 115.0
33.505416316 109.0
33.538838853 100.0
33.572261390 109.0
33.605683927 107.0
33.639106465 96.0
33.672529002 116.0
33.705951539 134.0
33.739374076 114.0
33.772796614 100.0
33.806219151 105.0
33.839641688 106.0
33.873064225 115.0
33.906486763 90.0
33.939909300 102.0
33.973331837 106.0
34.006754374 88.0
34.040176912 108.0
34.073599449 106.0
34.107021986 109.0
34.140444523 89.0
34.173867061 105.0
34.207289598 113.0
34.240712135 96.0
34.274134672 114.0
34.307557210 99.0
34.340979747 81.0
34.374402284 99.0
34.407824821 97.0
34.441247359 99.0
34.474669896 80.0
34.508092433 101.0
34.541514970 93.0
34.574937507 101.0
34.608360045 114.0
34.641782582 107.0
34.675205119 91.0
34.708627656 86.0
34.742050194 97.0
34.775472731 106.0
34.808895268 92.0
34.842317805 93.0
34.875740343 77.0
34.909162880 89.0
34.942585417 106.0
34.976007954 93.0
35.009430492 83.0
35.042853029 89.0
35.076275566 85.0
35.109698103 93.0
35.143120641 95.0
35.176543178 87.0
35.209965715 86.0
35.243388252 110.0
35.276810790 90.0
35.310233327 75.0
35.343655864 92.0
35.377078401 95.0
35.410500939 97.0
35.443923476 90.0
35.477346013 77.0
35.510768550 81.0
35.544191088 96.0
35.577613625 85.0
35.611036162 65.0
35.644458699 80.0
35.677881236 85.0
35.711303774 87.0
35.744726311 81.0
35.778148848 104.0
35.811571385 81.0
35.844993923 97.0
35.878416460 85.0
35.911838997 86.0
35.945261534 87.0
35.978684072 76.0
36.012106609 92.0
36.045529146 102.0
36.078951683 90.0
36.112374221 125.0
36.145796758 115.0
36.179219295 97.0
36.212641832 105.0
36.246064370 99.0
36.279486907 119.0
36.312909444 114.0
36.346331981 96.0
36.379754519 105.0
36.413177056 108.0
36.446599593 118.0
36.480022130 105.0
36.513444668 117.0
36.546867205 114.0
36.580289742 99.0
36.613712279 113.0
36.647134816 109.0
36.680557354 111.0
36.713979891 124.0
36.747402428 100.0
36.780824965 108.0
36.814247503 92.0
36.847670040 108.0
36.881092577 104.0
36.914515114 109.0
36.947937652 100.0
36.981360189 100.0
37.014782726 94.0
37.048205263 83.0
37.081627801 103.0
37.115050338 83.0
37.148472875 87.0
37.181895412 89.0
37.215317950 73.0
37.248740487 73.0
37.282163024 77.0
37.315585561 73.0
37.349008099 78.0
37.382430636 77.0
37.415853173 82.0
37.449275710 65.0
37.482698248 75.0
37.516120785 74.0
37.549543322 61.0
37.582965859 79.0
37.616388397 69.0
37.649810934 62.0
37.683233471 72.0
37.716656008 55.0
37.750078545 48.0
37.783501083 49.0
37.816923620 59.0
37.850346157 53.0
37.883768694 60.0
37.917191232 64.0
37.950613769 65.0
37.984036306 62.0
38.017458843 55.0
38.050881381 52.0
38.084303918 62.0
38.117726455 51.0
38.151148992 62.0
38.184571530 64.0
38.217994067 51.0
38.251416604 69.0
38.284839141 54.0
38.318261679 77.0
38.351684216 44.0
38.385106753 61.0
38.418529290 62.0
38.451951828 63.0
38.485374365 72.0
38.518796902 64.0
38.552219439 79.0
38.585641977 58.0
38.619064514 63.0
38.652487051 71.0
38.685909588 55.0
38.719332125 68.0
38.752754663 69.0
38.786177200 73.0
38.819599737 88.0
38.853022274 67.0
38.886444812 60.0
38.919867349 71.0
38.953289886 71.0
38.986712423 69.0
39.020134961 54.0
39.053557498 80.0
39.086980035 80.0
39.120402572 73.0
39.153825110 80.0
39.187247647 76.0
39.220670184 73.0
39.254092721 100.0
39.287515259 72.0
39.320937796 83.0
39.354360333 104.0
39.387782870 86.0
39.421205408 85.0
39.454627945 104.0
39.488050482 107.0
39.521473019 100.0
39.554895557 97.0
39.588318094 74.0
39.621740631 94.0
39.655163168 93.0
39.688585706 75.0
39.722008243 101.0
39.755430780 83.0
39.788853317 81.0
39.822275854 99.0
39.855698392 113.0
39.889120929 96.0
39.922543466 107.0
39.955966003 135.0
39.989388541 115.0
40.022811078 119.0
40.056233615 128.0
40.089656152 128.0
40.123078690 124.0
40.156501227 149.0
40.189923764 123.0
40.223346301 119.0
40.256768839 164.0
40.290191376 127.0
40.323613913 121.0
40.357036450 114.0
40.390458988 121.0
40.423881525 132.0
40.457304062 136.0
40.490726599 119.0
40.524149137 121.0
40.557571674 160.0
40.590994211 137.0
40.624416748 175.0
40.657839286 186.0
40.691261823 203.0
40.724684360 204.0
40.758106897 198.0
40.791529434 186.0
40.824951972 179.0
40.858374509 200.0
40.891797046 213.0
40.925219583 185.0
40.958642121 183.0
40.992064658 178.0
41.025487195 180.0
41.058909732 169.0
41.092332270 190.0
41.125754807 193.0
41.159177344 197.0
41.192599881 220.0
41.226022419 251.0
41.259444956 274.0
41.292867493 298.0
41.326290030 347.0
41.359712568 339.0
41.393135105 341.0
41.426557642 345.0
41.459980179 361.0
41.493402717 395.0
41.526825254 400.0
41.560247791 405.0
41.593670328 360.0
41.627092866 405.0
41.660515403 461.0
41.693937940 442.0
41.727360477 455.0
41.760783015 469.0
41.794205552 526.0
41.827628089 571.0
41.861050626 639.0
41.894473163 685.0
41.927895701 847.0
41.961318238 911.0
41.994740775 1048.0
42.028163312 1249.0
42.061585850 1362.0
42.095008387 1581.0
42.128430924 1750.0
42.161853461 2066.0
42.195275999 2184.0
42.228698536 2537.0
42.262121073 2634.0
42.295543610 2926.0
42.328966148 3025.0
42.362388685 3280.0
42.395811222 3264.0
42.429233759 3577.0
42.462656297 3598.0
42.496078834 3651.0
42.529501371 3635.0
42.562923908 3755.0
42.596346446 3674.0
42.629768983 3569.0
42.663191520 3509.0
42.696614057 3377.0
42.730036595 3269.0
42.763459132 3085.0
42.796881669 2927.0
42.830304206 2677.0
42.863726743 2603.0
42.897149281 2369.0
42.930571818 2189.0
42.963994355 1908.0
42.997416892 1717.0
43.030839430 1510.0
43.064261967 1372.0
43.097684504 1184.0
43.131107041 1095.0
43.164529579 1006.0
43.197952116 840.0
43.231374653 764.0
43.264797190 658.0
43.298219728 574.0
43.331642265 587.0
43.365064802 459.0
43.398487339 428.0
43.431909877 357.0
43.465332414 356.0
43.498754951 288.0
43.532177488 283.0
43.565600026 278.0
43.599022563 245.0
43.632445100 252.0
43.665867637 226.0
43.699290175 183.0
43.732712712 203.0
43.766135249 184.0
43.799557786 183.0
43.832980324 180.0
43.866402861 138.0
43.899825398 144.0
43.933247935 97.0
43.966670472 120.0
44.000093010 134.0
44.033515547 110.0
44.066938084 101.0
44.100360621 97.0
44.133783159 103.0
44.167205696 93.0
44.200628233 94.0
44.234050770 77.0
44.267473308 74.0
44.300895845 75.0
44.334318382 72.0
44.367740919 76.0
44.401163457 55.0
44.434585994 59.0
44.468008531 71.0
44.501431068 53.0
44.534853606 65.0
44.568276143 48.0
44.601698680 39.0
44.635121217 46.0
44.668543755 63.0
44.701966292 57.0
44.735388829 32.0
44.768811366 33.0
44.802233904 46.0
44.835656441 50.0
44.869078978 33.0
44.902501515 43.0
44.935924052 52.0
44.969346590 40.0
45.002769127 32.0
45.036191664 32.0
45.069614201 40.0
45.103036739 47.0
45.136459276 34.0
45.169881813 27.0
45.203304350 34.0
45.236726888 32.0
45.270149425 38.0
45.303571962 32.0
45.336994499 24.0
45.370417037 37.0
45.403839574 30.0
45.437262111 30.0
45.470684648 32.0
45.504107186 24.0
45.537529723 24.0
45.570952260 19.0
45.604374797 33.0
45.637797335 31.0
45.671219872 18.0
45.704642409 21.0
45.738064946 17.0
45.771487484 27.0
45.804910021 30.0
45.838332558 19.0
45.871755095 20.0
45.905177633 20.0
45.938600170 20.0
45.972022707 16.0
46.005445244 29.0
46.038867781 23.0
46.072290319 16.0
46.105712856 24.0
46.139135393 17.0
46.172557930 17.0
46.205980468 15.0
46.239403005 19.0
46.272825542 19.0
46.306248079 19.0
46.339670617 16.0
46.373093154 29.0
46.406515691 25.0
46.439938228 21.0
46.473360766 19.0
46.506783303 16.0
46.540205840 13.0
46.573628377 16.0
46.607050915 13.0
46.640473452 17.0
46.673895989 16.0
46.707318526 27.0
46.740741064 18.0
46.774163601 16.0
46.807586138 17.0
46.841008675 21.0
46.874431213 19.0
46.907853750 18.0
46.941276287 18.0
46.974698824 17.0
47.008121362 16.0
47.041543899 16.0
47.074966436 17.0
47.108388973 20.0
47.141811510 15.0
47.175234048 12.0
47.208656585 17.0
47.242079122 17.0
47.275501659 23.0
47.308924197 18.0
47.342346734 17.0
47.375769271 16.0
47.409191808 16.0
47.442614346 21.0
47.476036883 21.0
47.509459420 24.0
47.542881957 10.0
47.576304495 16.0
47.609727032 15.0
47.643149569 13.0
47.676572106 13.0
47.709994644 12.0
47.743417181 13.0
47.776839718 13.0
47.810262255 10.0
47.843684793 13.0
47.877107330 13.0
47.910529867 11.0
47.943952404 13.0
47.977374942 15.0
48.010797479 13.0
48.044220016 16.0
48.077642553 16.0
48.111065090 12.0
48.144487628 20.0
48.177910165 7.0
48.211332702 6.0
48.244755239 25.0
48.278177777 22.0
48.311600314 11.0
48.345022851 9.0
48.378445388 12.0
48.411867926 11.0
48.445290463 9.0
48.478713000 12.0
48.512135537 21.0
48.545558075 9.0
48.578980612 12.0
48.612403149 9.0
48.645825686 13.0
48.679248224 10.0
48.712670761 19.0
48.746093298 17.0
48.779515835 12.0
48.812938373 8.0
48.846360910 11.0
48.879783447 9.0
48.913205984 17.0
48.946628522 16.0
48.980051059 12.0
49.013473596 13.0
49.046896133 13.0
49.080318671 9.0
49.113741208 13.0
49.147163745 13.0
49.180586282 15.0
49.214008819 18.0
49.247431357 17.0
49.280853894 7.0
49.314276431 20.0
49.347698968 17.0
49.381121506 11.0
49.414544043 13.0
49.447966580 9.0
49.481389117 8.0
49.514811655 8.0
49.548234192 11.0
49.581656729 17.0
49.615079266 20.0
49.648501804 11.0
49.681924341 13.0
49.715346878 15.0
49.748769415 16.0
49.782191953 16.0
49.815614490 11.0
49.849037027 16.0
49.882459564 11.0
49.915882102 9.0
49.949304639 6.0
49.982727176 12.0
50.016149713 15.0
50.049572251 9.0
50.082994788 12.0
50.116417325 9.0
50.149839862 10.0
50.183262399 8.0
50.216684937 20.0
50.250107474 10.0
50.283530011 7.0
50.316952548 9.0
50.350375086 12.0
50.383797623 15.0
50.417220160 12.0
50.450642697 9.0
50.484065235 9.0
50.517487772 10.0
50.550910309 12.0
50.584332846 17.0
50.617755384 10.0
50.651177921 16.0
50.684600458 10.0
50.718022995 16.0
50.751445533 7.0
50.784868070 6.0
50.818290607 8.0
50.851713144 10.0
50.885135682 20.0
50.918558219 5.0
50.951980756 12.0
50.985403293 10.0
51.018825831 15.0
51.052248368 15.0
51.085670905 11.0
51.119093442 8.0
51.152515980 17.0
51.185938517 17.0
51.219361054 19.0
51.252783591 10.0
51.286206128 15.0
51.319628666 11.0
51.353051203 9.0
51.386473740 6.0
51.419896277 9.0
51.453318815 11.0
51.486741352 7.0
51.520163889 13.0
51.553586426 13.0
51.587008964 8.0
51.620431501 8.0
51.653854038 15.0
51.687276575 11.0
51.720699113 12.0
51.754121650 8.0
51.787544187 15.0
51.820966724 11.0
51.854389262 9.0
51.887811799 12.0
51.921234336 12.0
51.954656873 13.0
51.988079411 7.0
52.021501948 17.0
52.054924485 8.0
52.088347022 16.0
52.121769560 16.0
52.155192097 12.0
52.188614634 13.0
52.222037171 17.0
52.255459708 12.0
52.288882246 13.0
52.322304783 7.0
52.355727320 10.0
52.389149857 17.0
52.422572395 9.0
52.455994932 16.0
52.489417469 9.0
52.522840006 12.0
52.556262544 18.0
52.589685081 13.0
52.623107618 13.0
52.656530155 11.0
52.689952693 10.0
52.723375230 7.0
52.756797767 12.0
52.790220304 11.0
52.823642842 13.0
52.857065379 11.0
52.890487916 10.0
52.923910453 12.0
52.957332991 10.0
52.990755528 12.0
53.024178065 10.0
53.057600602 6.0
53.091023140 11.0
53.124445677 8.0
53.157868214 5.0
53.191290751 9.0
53.224713289 10.0
53.258135826 8.0
53.291558363 12.0
53.324980900 17.0
53.358403437 12.0
53.391825975 11.0
53.425248512 11.0
53.458671049 18.0
53.492093586 12.0
53.525516124 12.0
53.558938661 10.0
53.592361198 7.0
53.625783735 7.0
53.659206273 12.0
53.692628810 4.0
53.726051347 10.0
53.759473884 11.0
53.792896422 10.0
53.826318959 12.0
53.859741496 11.0
53.893164033 19.0
53.926586571 11.0
53.960009108 16.0
53.993431645 18.0
54.026854182 4.0
54.060276720 6.0
54.093699257 12.0
54.127121794 12.0
54.160544331 11.0
54.193966869 9.0
54.227389406 11.0
54.260811943 11.0
54.294234480 8.0
54.327657017 13.0
54.361079555 10.0
54.394502092 15.0
54.427924629 9.0
54.461347166 7.0
54.494769704 7.0
54.528192241 8.0
54.561614778 12.0
54.595037315 8.0
54.628459853 8.0
54.661882390 8.0
54.695304927 8.0
54.728727464 16.0
54.762150002 12.0
54.795572539 11.0
54.828995076 7.0
54.862417613 9.0
54.895840151 5.0
54.929262688 12.0
54.962685225 10.0
54.996107762 9.0
55.029530300 9.0
55.062952837 12.0
55.096375374 17.0
55.129797911 6.0
55.163220449 11.0
55.196642986 13.0
55.230065523 7.0
55.263488060 17.0
55.296910598 8.0
55.330333135 7.0
55.363755672 6.0
55.397178209 11.0
55.430600746 12.0
55.464023284 9.0
55.497445821 9.0
55.530868358 16.0
55.564290895 12.0
55.597713433 12.0
55.631135970 13.0
55.664558507 12.0
55.697981044 5.0
55.731403582 9.0
55.764826119 7.0
55.798248656 13.0
55.831671193 11.0
55.865093731 8.0
55.898516268 6.0
55.931938805 16.0
55.965361342 12.0
55.998783880 15.0
56.032206417 9.0
56.065628954 6.0
56.099051491 6.0
56.132474029 11.0
56.165896566 9.0
56.199319103 12.0
56.232741640 17.0
56.266164178 10.0
56.299586715 11.0
56.333009252 10.0
56.366431789 16.0
56.399854326 11.0
56.433276864 4.0
56.466699401 15.0
56.500121938 12.0
56.533544475 13.0
56.566967013 7.0
56.600389550 10.0
56.633812087 15.0
56.667234624 15.0
56.700657162 5.0
56.734079699 11.0
56.767502236 7.0
56.800924773 7.0
56.834347311 15.0
56.867769848 6.0
56.901192385 18.0
56.934614922 7.0
56.968037460 12.0
57.001459997 8.0
57.034882534 6.0
57.068305071 6.0
57.101727609 9.0
57.135150146 12.0
57.168572683 7.0
57.201995220 7.0
57.235417758 9.0
57.268840295 15.0
57.302262832 9.0
57.335685369 7.0
57.369107907 9.0
57.402530444 10.0
57.435952981 9.0
57.469375518 7.0
57.502798055 15.0
57.536220593 7.0
57.569643130 9.0
57.603065667 8.0
57.636488204 6.0
57.669910742 10.0
57.703333279 15.0
57.736755816 15.0
57.770178353 10.0
57.803600891 11.0
57.837023428 11.0
57.870445965 9.0
57.903868502 7.0
57.937291040 17.0
57.970713577 9.0
58.004136114 10.0
58.037558651 4.0
58.070981189 5.0
58.104403726 16.0
58.137826263 11.0
58.171248800 21.0
58.204671338 10.0
58.238093875 8.0
58.271516412 7.0
58.304938949 15.0
58.338361487 8.0
58.371784024 4.0
58.405206561 15.0
58.438629098 10.0
58.472051635 13.0
58.505474173 10.0
58.538896710 6.0
58.572319247 4.0
58.605741784 12.0
58.639164322 13.0
58.672586859 8.0
58.706009396 17.0
58.739431933 12.0
58.772854471 10.0
58.806277008 12.0
58.839699545 17.0
58.873122082 10.0
58.906544620 8.0
58.939967157 20.0
58.973389694 8.0
59.006812231 11.0
59.040234769 10.0
59.073657306 3.0
59.107079843 12.0
59.140502380 10.0
59.173924918 9.0
59.207347455 9.0
59.240769992 17.0
59.274192529 10.0
59.307615067 12.0
59.341037604 4.0
59.374460141 8.0
59.407882678 9.0
59.441305216 13.0
59.474727753 7.0
59.508150290 10.0
59.541572827 5.0
59.574995364 8.0
59.608417902 10.0
59.641840439 11.0
59.675262976 9.0
59.708685513 5.0
59.742108051 10.0
59.775530588 11.0
59.808953125 11.0
59.842375662 12.0
59.875798200 9.0
59.909220737 11.0
59.942643274 6.0
59.976065811 7.0
60.009488349 9.0
60.042910886 8.0
60.076333423 9.0
60.109755960 9.0
60.143178498 10.0
60.176601035 17.0
60.210023572 10.0
60.243446109 5.0
60.276868647 12.0
60.310291184 11.0
60.343713721 8.0
60.377136258 8.0
60.410558796 10.0
60.443981333 10.0
60.477403870 8.0
60.510826407 10.0
60.544248944 11.0
60.577671482 11.0
60.611094019 11.0
60.644516556 7.0
60.677939093 6.0
60.711361631 16.0
60.744784168 11.0
60.778206705 9.0
60.811629242 17.0
60.845051780 5.0
60.878474317 8.0
60.911896854 12.0
60.945319391 9.0
60.978741929 12.0
61.012164466 10.0
61.045587003 9.0
61.079009540 16.0
61.112432078 13.0
61.145854615 9.0
61.179277152 16.0
61.212699689 11.0
61.246122227 16.0
61.279544764 11.0
61.312967301 9.0
61.346389838 17.0
61.379812376 12.0
61.413234913 9.0
61.446657450 4.0
61.480079987 8.0
61.513502525 8.0
61.546925062 13.0
61.580347599 18.0
61.613770136 9.0
61.647192673 9.0
61.680615211 8.0
61.714037748 8.0
61.747460285 12.0
61.780882822 17.0
61.814305360 16.0
61.847727897 7.0
61.881150434 11.0
61.914572971 15.0
61.947995509 12.0
61.981418046 12.0
62.014840583 5.0
62.048263120 13.0
62.081685658 7.0
62.115108195 10.0
62.148530732 21.0
62.181953269 11.0
62.215375807 11.0
62.248798344 4.0
62.282220881 11.0
62.315643418 11.0
62.349065956 11.0
62.382488493 16.0
62.415911030 16.0
62.449333567 17.0
62.482756105 22.0
62.516178642 15.0
62.549601179 15.0
62.583023716 16.0
62.616446253 17.0
62.649868791 7.0
62.683291328 6.0
62.716713865 12.0
62.750136402 11.0
62.783558940 9.0
62.816981477 11.0
62.850404014 6.0
62.883826551 7.0
62.917249089 10.0
62.950671626 19.0
62.984094163 13.0
63.017516700 17.0
63.050939238 10.0
63.084361775 7.0
63.117784312 8.0
63.151206849 18.0
63.184629387 12.0
63.218051924 16.0
63.251474461 6.0
63.284896998 9.0
63.318319536 11.0
63.351742073 15.0
63.385164610 16.0
63.418587147 9.0
63.452009685 19.0
63.485432222 11.0
63.518854759 16.0
63.552277296 12.0
63.585699834 13.0
63.619122371 8.0
63.652544908 16.0
63.685967445 18.0
63.719389982 12.0
63.752812520 10.0
63.786235057 11.0
63.819657594 9.0
63.853080131 17.0
63.886502669 17.0
63.919925206 12.0
63.953347743 11.0
63.986770280 11.0
64.020192818 21.0
64.053615355 13.0
64.087037892 18.0
64.120460429 18.0
64.153882967 16.0
64.187305504 12.0
64.220728041 12.0
64.254150578 17.0
64.287573116 17.0
64.320995653 16.0
64.354418190 15.0
64.387840727 11.0
64.421263265 17.0
64.454685802 16.0
64.488108339 20.0
64.521530876 16.0
64.554953414 13.0
64.588375951 12.0
64.621798488 16.0
64.655221025 18.0
64.688643562 21.0
64.722066100 21.0
64.755488637 19.0
64.788911174 22.0
64.822333711 19.0
64.855756249 19.0
64.889178786 16.0
64.922601323 20.0
64.956023860 19.0
64.989446398 15.0
65.022868935 17.0
65.056291472 18.0
65.089714009 10.0
65.123136547 19.0
65.156559084 18.0
65.189981621 12.0
65.223404158 17.0
65.256826696 21.0
65.290249233 18.0
65.323671770 22.0
65.357094307 24.0
65.390516845 12.0
65.423939382 24.0
65.457361919 26.0
65.490784456 22.0
65.524206994 16.0
65.557629531 24.0
65.591052068 11.0
65.624474605 25.0
65.657897143 26.0
65.691319680 20.0
65.724742217 17.0
65.758164754 27.0
65.791587291 26.0
65.825009829 18.0
65.858432366 22.0
65.891854903 19.0
65.925277440 33.0
65.958699978 24.0
65.992122515 27.0
66.025545052 13.0
66.058967589 20.0
66.092390127 30.0
66.125812664 13.0
66.159235201 21.0
66.192657738 22.0
66.226080276 24.0
66.259502813 18.0
66.292925350 24.0
66.326347887 20.0
66.359770425 29.0
66.393192962 33.0
66.426615499 24.0
66.460038036 29.0
66.493460574 45.0
66.526883111 77.0
66.560305648 96.0
66.593728185 108.0
66.627150723 78.0
66.660573260 78.0
66.693995797 82.0
66.727418334 95.0
66.760840871 74.0
66.794263409 76.0
66.827685946 77.0
66.861108483 83.0
66.894531020 72.0
66.927953558 109.0
66.961376095 83.0
66.994798632 82.0
67.028221169 102.0
67.061643707 100.0
67.095066244 99.0
67.128488781 101.0
67.161911318 123.0
67.195333856 125.0
67.228756393 96.0
67.262178930 121.0
67.295601467 125.0
67.329024005 131.0
67.362446542 115.0
67.395869079 119.0
67.429291616 142.0
67.462714154 136.0
67.496136691 142.0
67.529559228 134.0
67.562981765 125.0
67.596404303 125.0
67.629826840 133.0
67.663249377 138.0
67.696671914 132.0
67.730094452 134.0
67.763516989 145.0
67.796939526 142.0
67.830362063 150.0
67.863784600 151.0
67.897207138 164.0
67.930629675 177.0
67.964052212 181.0
67.997474749 220.0
68.030897287 192.0
68.064319824 198.0
68.097742361 194.0
68.131164898 217.0
68.164587436 227.0
68.198009973 233.0
68.231432510 249.0
68.264855047 237.0
68.298277585 231.0
68.331700122 278.0
68.365122659 282.0
68.398545196 288.0
68.431967734 312.0
68.465390271 318.0
68.498812808 311.0
68.532235345 331.0
68.565657883 375.0
68.599080420 396.0
68.632502957 442.0
68.665925494 386.0
68.699348032 490.0
68.732770569 592.0
68.766193106 704.0
68.799615643 863.0
68.833038180 1216.0
68.866460718 1449.0
68.899883255 1555.0
68.933305792 1385.0
68.966728329 1363.0
69.000150867 1620.0
69.033573404 2145.0
69.066995941 3099.0
69.100418478 4972.0
69.133841016 10191.0
69.167263553 36560.0
69.200686090 156618.0
69.234108627 80483.0
69.267531165 20080.0
69.300953702 8926.0
69.334376239 9418.0
69.367798776 26824.0
69.401221314 81647.0
69.434643851 36537.0
69.468066388 9661.0
69.501488925 4068.0
69.534911463 2381.0
69.568334000 1790.0
69.601756537 1384.0
69.635179074 1127.0
69.668601612 968.0
69.702024149 813.0
69.735446686 756.0
69.768869223 650.0
69.802291761 603.0
69.835714298 554.0
69.869136835 494.0
69.902559372 458.0
69.935981909 401.0
69.969404447 385.0
70.002826984 366.0
70.036249521 356.0
70.069672058 338.0
70.103094596 328.0
70.136517133 275.0
70.169939670 283.0
70.203362207 292.0
70.236784745 293.0
70.270207282 242.0
70.303629819 271.0
70.337052356 243.0
70.370474894 238.0
70.403897431 220.0
70.437319968 195.0
70.470742505 188.0
70.504165043 172.0
70.537587580 183.0
70.571010117 170.0
70.604432654 164.0
70.637855192 179.0
70.671277729 165.0
70.704700266 163.0
70.738122803 160.0
70.771545341 136.0
70.804967878 114.0
70.838390415 111.0
70.871812952 131.0
70.905235489 136.0
70.938658027 137.0
70.972080564 100.0
71.005503101 132.0
71.038925638 141.0
71.072348176 116.0
71.105770713 110.0
71.139193250 96.0
71.172615787 97.0
71.206038325 122.0
71.239460862 116.0
71.272883399 91.0
71.306305936 90.0
71.339728474 96.0
71.373151011 75.0
71.406573548 80.0
71.439996085 91.0
71.473418623 69.0
71.506841160 69.0
71.540263697 96.0
71.573686234 73.0
71.607108772 88.0
71.640531309 64.0
71.673953846 81.0
71.707376383 59.0
71.740798921 69.0
71.774221458 63.0
71.807643995 66.0
71.841066532 57.0
71.874489070 73.0
71.907911607 58.0
71.941334144 49.0
71.974756681 59.0
72.008179218 45.0
72.041601756 50.0
72.075024293 47.0
72.108446830 52.0
72.141869367 63.0
72.175291905 43.0
72.208714442 37.0
72.242136979 50.0
72.275559516 63.0
72.308982054 34.0
72.342404591 41.0
72.375827128 46.0
72.409249665 35.0
72.442672203 27.0
72.476094740 47.0
72.509517277 37.0
72.542939814 39.0
72.576362352 40.0
72.609784889 26.0
72.643207426 34.0
72.676629963 41.0
72.710052501 25.0
72.743475038 29.0
72.776897575 27.0
72.810320112 43.0
72.843742650 39.0
72.877165187 25.0
72.910587724 36.0
72.944010261 34.0
72.977432798 30.0
73.010855336 30.0
73.044277873 26.0
73.077700410 25.0
73.111122947 13.0
73.144545485 29.0
73.177968022 23.0
73.211390559 34.0
73.244813096 20.0
73.278235634 20.0
73.311658171 21.0
73.345080708 26.0
73.378503245 22.0
73.411925783 22.0
73.445348320 24.0
73.478770857 27.0
73.512193394 26.0
73.545615932 23.0
73.579038469 16.0
73.612461006 23.0
73.645883543 26.0
73.679306081 20.0
73.712728618 25.0
73.746151155 18.0
73.779573692 21.0
73.812996230 26.0
73.846418767 15.0
73.879841304 10.0
73.913263841 24.0
73.946686379 17.0
73.980108916 21.0
74.013531453 16.0
74.046953990 26.0
74.080376527 19.0
74.113799065 21.0
74.147221602 17.0
74.180644139 23.0
74.214066676 20.0
74.247489214 19.0
74.280911751 24.0
74.314334288 15.0
74.347756825 12.0
74.381179363 17.0
74.414601900 12.0
74.448024437 19.0
74.481446974 20.0
74.514869512 12.0
74.548292049 12.0
74.581714586 12.0
74.615137123 18.0
74.648559661 19.0
74.681982198 17.0
74.715404735 16.0
74.748827272 11.0
74.782249810 15.0
74.815672347 19.0
74.849094884 12.0
74.882517421 17.0
74.915939959 16.0
74.949362496 21.0
74.982785033 9.0
75.016207570 21.0
75.049630108 21.0
75.083052645 17.0
75.116475182 10.0
75.149897719 12.0
75.183320256 22.0
75.216742794 10.0
75.250165331 17.0
75.283587868 25.0
75.317010405 18.0
75.350432943 20.0
75.383855480 12.0
75.417278017 13.0
75.450700554 24.0
75.484123092 16.0
75.517545629 11.0
75.550968166 13.0
75.584390703 22.0
75.617813241 19.0
75.651235778 15.0
75.684658315 17.0
75.718080852 20.0
75.751503390 11.0
75.784925927 11.0
75.818348464 12.0
75.851771001 17.0
75.885193539 24.0
75.918616076 11.0
75.952038613 17.0
75.985461150 20.0
76.018883688 8.0
76.052306225 21.0
76.085728762 18.0
76.119151299 11.0
76.152573836 13.0
76.185996374 10.0
76.219418911 7.0
76.252841448 7.0
76.286263985 16.0
76.319686523 11.0
76.353109060 11.0
76.386531597 11.0
76.419954134 12.0
76.453376672 11.0
76.486799209 15.0
76.520221746 13.0
76.553644283 16.0
76.587066821 19.0
76.620489358 11.0
76.653911895 12.0
76.687334432 12.0
76.720756970 12.0
76.754179507 21.0
76.787602044 18.0
76.821024581 6.0
76.854447119 7.0
76.887869656 13.0
76.921292193 17.0
76.954714730 7.0
76.988137268 12.0
77.021559805 13.0
77.054982342 13.0
77.088404879 12.0
77.121827417 13.0
77.155249954 12.0
77.188672491 16.0
77.222095028 12.0
77.255517565 13.0
77.288940103 17.0
77.322362640 15.0
77.355785177 12.0
77.389207714 9.0
77.422630252 16.0
77.456052789 17.0
77.489475326 18.0
77.522897863 18.0
77.556320401 9.0
77.589742938 10.0
77.623165475 16.0
77.656588012 13.0
77.690010550 21.0
77.723433087 20.0
77.756855624 17.0
77.790278161 13.0
77.823700699 15.0
77.857123236 23.0
77.890545773 15.0
77.923968310 8.0
77.957390848 16.0
77.990813385 19.0
78.024235922 11.0
78.057658459 12.0
78.091080997 22.0
78.124503534 8.0
78.157926071 15.0
78.191348608 15.0
78.224771145 15.0
78.258193683 13.0
78.291616220 9.0
78.325038757 17.0
78.358461294 7.0
78.391883832 9.0
78.425306369 12.0
78.458728906 13.0
78.492151443 15.0
78.525573981 12.0
78.558996518 11.0
78.592419055 17.0
78.625841592 10.0
78.659264130 25.0
78.692686667 4.0
78.726109204 13.0
78.759531741 8.0
78.792954279 10.0
78.826376816 10.0
78.859799353 10.0
78.893221890 13.0
78.926644428 11.0
78.960066965 16.0
78.993489502 9.0
79.026912039 11.0
79.060334577 20.0
79.093757114 12.0
79.127179651 17.0
79.160602188 11.0
79.194024726 11.0
79.227447263 12.0
79.260869800 15.0
79.294292337 8.0
79.327714874 9.0
79.361137412 9.0
79.394559949 8.0
79.427982486 7.0
79.461405023 9.0
79.494827561 9.0
79.528250098 12.0
79.561672635 6.0
79.595095172 5.0
79.628517710 16.0
79.661940247 7.0
79.695362784 7.0
79.728785321 7.0
79.762207859 5.0
79.795630396 9.0
79.829052933 13.0
79.862475470 13.0
79.895898008 8.0
79.929320545 15.0
79.962743082 10.0
79.996165619 13.0
80.029588157 6.0
80.063010694 8.0
80.096433231 7.0
80.129855768 13.0
80.163278306 9.0
80.196700843 6.0
80.230123380 10.0
80.263545917 9.0
80.296968454 13.0
80.330390992 11.0
80.363813529 9.0
80.397236066 8.0
80.430658603 11.0
80.464081141 4.0
80.497503678 13.0
80.530926215 8.0
80.564348752 4.0
80.597771290 12.0
80.631193827 10.0
80.664616364 9.0
80.698038901 3.0
80.731461439 10.0
80.764883976 3.0
80.798306513 11.0
80.831729050 13.0
80.865151588 13.0
80.898574125 7.0
80.931996662 11.0
80.965419199 3.0
80.998841737 9.0
81.032264274 10.0
81.065686811 10.0
81.099109348 13.0
81.132531886 5.0
81.165954423 5.0
81.199376960 8.0
81.232799497 8.0
81.266222035 6.0
81.299644572 9.0
81.333067109 9.0
81.366489646 15.0
81.399912183 5.0
81.433334721 6.0
81.466757258 12.0
81.500179795 4.0
81.533602332 7.0
81.567024870 9.0
81.600447407 2.0
81.633869944 16.0
81.667292481 12.0
81.700715019 7.0
81.734137556 10.0
81.767560093 10.0
81.800982630 5.0
81.834405168 10.0
81.867827705 12.0
81.901250242 5.0
81.934672779 9.0
81.968095317 11.0
82.001517854 10.0
82.034940391 9.0
82.068362928 8.0
82.101785466 8.0
82.135208003 9.0
82.168630540 4.0
82.202053077 6.0
82.235475615 12.0
82.268898152 13.0
82.302320689 6.0
82.335743226 5.0
82.369165763 10.0
82.402588301 10.0
82.436010838 10.0
82.469433375 10.0
82.502855912 6.0
82.536278450 6.0
82.569700987 8.0
82.603123524 11.0
82.636546061 15.0
82.669968599 5.0
82.703391136 11.0
82.736813673 10.0
82.770236210 7.0
82.803658748 7.0
82.837081285 4.0
82.870503822 5.0
82.903926359 7.0
82.937348897 10.0
82.970771434 8.0
83.004193971 5.0
83.037616508 9.0
83.071039046 6.0
83.104461583 7.0
83.137884120 15.0
83.171306657 4.0
83.204729195 8.0
83.238151732 9.0
83.271574269 8.0
83.304996806 10.0
83.338419344 10.0
83.371841881 9.0
83.405264418 4.0
83.438686955 6.0
83.472109492 9.0
83.505532030 6.0
83.538954567 7.0
83.572377104 8.0
83.605799641 4.0
83.639222179 11.0
83.672644716 9.0
83.706067253 12.0
83.739489790 12.0
83.772912328 7.0
83.806334865 9.0
83.839757402 7.0
83.873179939 9.0
83.906602477 8.0
83.940025014 4.0
83.973447551 8.0
84.006870088 11.0
84.040292626 5.0
84.073715163 8.0
84.107137700 5.0
84.140560237 6.0
84.173982775 8.0
84.207405312 12.0
84.240827849 10.0
84.274250386 5.0
84.307672924 4.0
84.341095461 8.0
84.374517998 7.0
84.407940535 9.0
84.441363072 8.0
84.474785610 7.0
84.508208147 13.0
84.541630684 7.0
84.575053221 8.0
84.608475759 8.0
84.641898296 15.0
84.675320833 5.0
84.708743370 4.0
84.742165908 5.0
84.775588445 10.0
84.809010982 4.0
84.842433519 6.0
84.875856057 11.0
84.909278594 9.0
84.942701131 10.0
84.976123668 8.0
85.009546206 10.0
85.042968743 8.0
85.076391280 4.0
85.109813817 7.0
85.143236355 8.0
85.176658892 5.0
85.210081429 6.0
85.243503966 6.0
85.276926504 11.0
85.310349041 12.0
85.343771578 11.0
85.377194115 7.0
85.410616653 12.0
85.444039190 8.0
85.477461727 7.0
85.510884264 4.0
85.544306801 16.0
85.577729339 7.0
85.611151876 5.0
85.644574413 11.0
85.677996950 6.0
85.711419488 5.0
85.744842025 8.0
85.778264562 9.0
85.811687099 6.0
85.845109637 13.0
85.878532174 8.0
85.911954711 3.0
85.945377248 6.0
85.978799786 10.0
86.012222323 7.0
86.045644860 7.0
86.079067397 9.0
86.112489935 9.0
86.145912472 5.0
86.179335009 8.0
86.212757546 9.0
86.246180084 13.0
86.279602621 11.0
86.313025158 11.0
86.346447695 11.0
86.379870233 7.0
86.413292770 4.0
86.446715307 9.0
86.480137844 7.0
86.513560381 11.0
86.546982919 10.0
86.580405456 10.0
86.613827993 8.0
86.647250530 9.0
86.680673068 9.0
86.714095605 6.0
86.747518142 8.0
86.780940679 8.0
86.814363217 7.0
86.847785754 7.0
86.881208291 7.0
86.914630828 17.0
86.948053366 17.0
86.981475903 9.0
87.014898440 4.0
87.048320977 10.0
87.081743515 9.0
87.115166052 3.0
87.148588589 6.0
87.182011126 7.0
87.215433664 7.0
87.248856201 6.0
87.282278738 12.0
87.315701275 16.0
87.349123813 3.0
87.382546350 9.0
87.415968887 7.0
87.449391424 12.0
87.482813962 16.0
87.516236499 13.0
87.549659036 7.0
87.583081573 13.0
87.616504110 10.0
87.649926648 7.0
87.683349185 3.0
87.716771722 5.0
87.750194259 9.0
87.783616797 9.0
87.817039334 9.0
87.850461871 3.0
87.883884408 8.0
87.917306946 3.0
87.950729483 10.0
87.984152020 10.0
88.017574557 11.0
88.050997095 9.0
88.084419632 7.0
88.117842169 8.0
88.151264706 8.0
88.184687244 10.0
88.218109781 7.0
88.251532318 8.0
88.284954855 10.0
88.318377393 11.0
88.351799930 10.0
88.385222467 10.0
88.418645004 7.0
88.452067542 2.0
88.485490079 7.0
88.518912616 12.0
88.552335153 10.0
88.585757690 5.0
88.619180228 3.0
88.652602765 6.0
88.686025302 13.0
88.719447839 11.0
88.752870377 11.0
88.786292914 11.0
88.819715451 15.0
88.853137988 7.0
88.886560526 10.0
88.919983063 8.0
88.953405600 9.0
88.986828137 12.0
89.020250675 7.0
89.053673212 8.0
89.087095749 15.0
89.120518286 7.0
89.153940824 2.0
89.187363361 12.0
89.220785898 8.0
89.254208435 9.0
89.287630973 16.0
89.321053510 8.0
89.354476047 4.0
89.387898584 9.0
89.421321122 13.0
89.454743659 13.0
89.488166196 8.0
89.521588733 6.0
89.555011271 10.0
89.588433808 13.0
89.621856345 12.0
89.655278882 10.0
89.688701419 15.0
89.722123957 9.0
89.755546494 7.0
89.788969031 10.0
89.822391568 11.0
89.855814106 6.0
89.889236643 8.0
89.922659180 13.0
89.956081717 13.0
89.989504255 12.0
90.022926792 8.0
90.056349329 13.0
90.089771866 9.0
90.123194404 6.0
90.156616941 9.0
90.190039478 12.0
90.223462015 18.0
90.256884553 17.0
90.290307090 21.0
90.323729627 15.0
90.357152164 20.0
90.390574702 7.0
90.423997239 9.0
90.457419776 11.0
90.490842313 16.0
90.524264851 9.0
90.557687388 19.0
90.591109925 6.0
90.624532462 12.0
90.657954999 10.0
90.691377537 9.0
90.724800074 15.0
90.758222611 12.0
90.791645148 9.0
90.825067686 16.0
90.858490223 12.0
90.891912760 17.0
90.925335297 18.0
90.958757835 11.0
90.992180372 15.0
91.025602909 16.0
91.059025446 13.0
91.092447984 20.0
91.125870521 6.0
91.159293058 18.0
91.192715595 19.0
91.226138133 15.0
91.259560670 21.0
91.292983207 13.0
91.326405744 17.0
91.359828282 20.0
91.393250819 11.0
91.426673356 23.0
91.460095893 20.0
91.493518431 9.0
91.526940968 21.0
91.560363505 24.0
91.593786042 22.0
91.627208580 20.0
91.660631117 18.0
91.694053654 9.0
91.727476191 25.0
91.760898728 32.0
91.794321266 32.0
91.827743803 29.0
91.861166340 31.0
91.894588877 30.0
91.928011415 39.0
91.961433952 25.0
91.994856489 32.0
92.028279026 45.0
92.061701564 48.0
92.095124101 57.0
92.128546638 45.0
92.161969175 37.0
92.195391713 47.0
92.228814250 54.0
92.262236787 60.0
92.295659324 65.0
92.329081862 68.0
92.362504399 61.0
92.395926936 81.0
92.429349473 69.0
92.462772011 78.0
92.496194548 86.0
92.529617085 81.0
92.563039622 88.0
92.596462160 93.0
92.629884697 82.0
92.663307234 120.0
92.696729771 114.0
92.730152308 91.0
92.763574846 107.0
92.796997383 101.0
92.830419920 116.0
92.863842457 114.0
92.897264995 106.0
92.930687532 96.0
92.964110069 128.0
92.997532606 109.0
93.030955144 128.0
93.064377681 125.0
93.097800218 129.0
93.131222755 123.0
93.164645293 104.0
93.198067830 116.0
93.231490367 92.0
93.264912904 94.0
93.298335442 101.0
93.331757979 109.0
93.365180516 99.0
93.398603053 93.0
93.432025591 103.0
93.465448128 83.0
93.498870665 85.0
93.532293202 66.0
93.565715740 83.0
93.599138277 81.0
93.632560814 79.0
93.665983351 62.0
93.699405889 77.0
93.732828426 71.0
93.766250963 59.0
93.799673500 78.0
93.833096037 53.0
93.866518575 62.0
93.899941112 67.0
93.933363649 46.0
93.966786186 49.0
94.000208724 44.0
94.033631261 46.0
94.067053798 35.0
94.100476335 35.0
94.133898873 38.0
94.167321410 34.0
94.200743947 32.0
94.234166484 34.0
94.267589022 31.0
94.301011559 22.0
94.334434096 24.0
94.367856633 25.0
94.401279171 30.0
94.434701708 20.0
94.468124245 18.0
94.501546782 20.0
94.534969320 19.0
94.568391857 17.0
94.601814394 31.0
94.635236931 24.0
94.668659469 22.0
94.702082006 23.0
94.735504543 17.0
94.768927080 10.0
94.802349617 13.0
94.835772155 13.0
94.869194692 21.0
94.902617229 10.0
94.936039766 11.0
94.969462304 18.0
95.002884841 12.0
95.036307378 16.0
95.069729915 11.0
95.103152453 7.0
95.136574990 18.0
95.169997527 13.0
95.203420064 19.0
95.236842602 7.0
95.270265139 11.0
95.303687676 11.0
95.337110213 15.0
95.370532751 13.0
95.403955288 13.0
95.437377825 9.0
95.470800362 10.0
95.504222900 19.0
95.537645437 11.0
95.571067974 15.0
95.604490511 13.0
95.637913049 11.0
95.671335586 10.0
95.704758123 15.0
95.738180660 11.0
95.771603198 4.0
95.805025735 11.0
95.838448272 7.0
95.871870809 16.0
95.905293346 6.0
95.938715884 9.0
95.972138421 10.0
96.005560958 8.0
96.038983495 11.0
96.072406033 8.0
96.105828570 7.0
96.139251107 6.0
96.172673644 9.0
96.206096182 6.0
96.239518719 8.0
96.272941256 12.0
96.306363793 11.0
96.339786331 11.0
96.373208868 10.0
96.406631405 9.0
96.440053942 7.0
96.473476480 12.0
96.506899017 8.0
96.540321554 8.0
96.573744091 9.0
96.607166629 6.0
96.640589166 4.0
96.674011703 9.0
96.707434240 9.0
96.740856778 7.0
96.774279315 7.0
96.807701852 8.0
96.841124389 12.0
96.874546926 5.0
96.907969464 6.0
96.941392001 9.0
96.974814538 4.0
97.008237075 11.0
97.041659613 9.0
97.075082150 9.0
97.108504687 8.0
97.141927224 9.0
97.175349762 8.0
97.208772299 6.0
97.242194836 10.0
97.275617373 8.0
97.309039911 8.0
97.342462448 8.0
97.375884985 9.0
97.409307522 5.0
97.442730060 9.0
97.476152597 10.0
97.509575134 8.0
97.542997671 5.0
97.576420209 7.0
97.609842746 8.0
97.643265283 7.0
97.676687820 8.0
97.710110358 6.0
97.743532895 10.0
97.776955432 4.0
97.810377969 5.0
97.843800507 8.0
97.877223044 1.0
97.910645581 7.0
97.944068118 4.0
97.977490655 7.0
98.010913193 11.0
98.044335730 2.0
98.077758267 6.0
98.111180804 8.0
98.144603342 4.0
98.178025879 9.0
98.211448416 10.0
98.244870953 10.0
98.278293491 10.0
98.311716028 5.0
98.345138565 12.0
98.378561102 7.0
98.411983640 7.0
98.445406177 8.0
98.478828714 6.0
98.512251251 4.0
98.545673789 7.0
98.579096326 10.0
98.612518863 3.0
98.645941400 6.0
98.679363938 7.0
98.712786475 6.0
98.746209012 6.0
98.779631549 7.0
98.813054087 12.0
98.846476624 8.0
98.879899161 5.0
98.913321698 7.0
98.946744235 9.0
98.980166773 5.0
99.013589310 9.0
99.047011847 6.0
99.080434384 8.0
99.113856922 8.0
99.147279459 4.0
99.180701996 6.0
99.214124533 9.0
99.247547071 9.0
99.280969608 4.0
99.314392145 9.0
99.347814682 3.0
99.381237220 9.0
99.414659757 10.0
99.448082294 3.0
99.481504831 12.0
99.514927369 7.0
99.548349906 8.0
99.581772443 12.0
99.615194980 6.0
99.648617518 8.0
99.682040055 9.0
99.715462592 3.0
99.748885129 5.0
99.782307667 7.0
99.815730204 7.0
99.849152741 5.0
99.882575278 7.0
99.915997816 4.0
99.949420353 10.0
99.982842890 11.0
