20.002711270 78.0
20.036133807 83.0
20.069556344 71.0
20.102978882 93.0
20.136401419 88.0
20.169823956 67.0
20.203246493 80.0
20.236669031 85.0
20.270091568 94.0
20.303514105 76.0
20.336936642 68.0
20.370359180 79.0
20.403781717 93.0
20.437204254 73.0
20.470626791 79.0
20.504049329 87.0
20.537471866 91.0
20.570894403 75.0
20.604316940 78.0
20.637739478 63.0
20.671162015 88.0
20.704584552 82.0
20.738007089 75.0
20.771429627 99.0
20.804852164 78.0
20.838274701 58.0
20.871697238 76.0
20.905119776 68.0
20.938542313 67.0
20.971964850 95.0
21.005387387 87.0
21.038809925 66.0
21.072232462 69.0
21.105654999 74.0
21.139077536 62.0
21.172500073 77.0
21.205922611 79.0
21.239345148 76.0
21.272767685 65.0
21.306190222 82.0
21.339612760 79.0
21.373035297 106.0
21.406457834 65.0
21.439880371 88.0
21.473302909 96.0
21.506725446 72.0
21.540147983 72.0
21.573570520 65.0
21.606993058 73.0
21.640415595 71.0
21.673838132 69.0
21.707260669 77.0
21.740683207 72.0
21.774105744 66.0
21.807528281 78.0
21.840950818 61.0
21.874373356 85.0
21.907795893 61.0
21.941218430 77.0
21.974640967 82.0
22.008063505 58.0
22.041486042 52.0
22.074908579 61.0
22.108331116 67.0
22.141753653 73.0
22.175176191 68.0
22.208598728 69.0
22.242021265 71.0
22.275443802 69.0
22.308866340 93.0
22.342288877 66.0
22.375711414 67.0
22.409133951 72.0
22.442556489 72.0
22.475979026 76.0
22.509401563 65.0
22.542824100 64.0
22.576246638 69.0
22.609669175 61.0
22.643091712 69.0
22.676514249 66.0
22.709936787 64.0
22.743359324 67.0
22.776781861 74.0
22.810204398 65.0
22.843626936 53.0
22.877049473 61.0
22.910472010 72.0
22.943894547 58.0
22.977317085 54.0
23.010739622 68.0
23.044162159 75.0
23.077584696 55.0
23.111007234 64.0
23.144429771 66.0
23.177852308 65.0
23.211274845 57.0
23.244697382 53.0
23.278119920 88.0
23.311542457 66.0
23.344964994 68.0
23.378387531 68.0
23.411810069 66.0
23.445232606 62.0
23.478655143 50.0
23.512077680 58.0
23.545500218 76.0
23.578922755 68.0
23.612345292 68.0
23.645767829 60.0
23.679190367 76.0
23.712612904 57.0
23.746035441 65.0
23.779457978 64.0
23.812880516 69.0
23.846303053 60.0
23.879725590 62.0
23.913148127 64.0
23.946570665 60.0
23.979993202 63.0
24.013415739 54.0
24.046838276 66.0
24.080260814 49.0
24.113683351 54.0
24.147105888 60.0
24.180528425 64.0
24.213950962 53.0
24.247373500 48.0
24.280796037 46.0
24.314218574 69.0
24.347641111 51.0
24.381063649 53.0
24.414486186 51.0
24.447908723 69.0
24.481331260 55.0
24.514753798 52.0
24.548176335 62.0
24.581598872 53.0
24.615021409 47.0
24.648443947 59.0
24.681866484 65.0
24.715289021 63.0
24.748711558 62.0
24.782134096 60.0
24.815556633 59.0
24.848979170 55.0
24.882401707 55.0
24.915824245 59.0
24.949246782 44.0
24.982669319 50.0
25.016091856 71.0
25.049514394 51.0
25.082936931 53.0
25.116359468 49.0
25.149782005 41.0
25.183204543 55.0
25.216627080 52.0
25.250049617 53.0
25.283472154 50.0
25.316894691 60.0
25.350317229 53.0
25.383739766 54.0
25.417162303 49.0
25.450584840 48.0
25.484007378 48.0
25.517429915 62.0
25.550852452 41.0
25.584274989 68.0
25.617697527 45.0
25.651120064 55.0
25.684542601 40.0
25.717965138 67.0
25.751387676 57.0
25.784810213 40.0
25.818232750 43.0
25.851655287 53.0
25.885077825 52.0
25.918500362 53.0
25.951922899 55.0
25.985345436 52.0
26.018767974 53.0
26.052190511 44.0
26.085613048 60.0
26.119035585 57.0
26.152458123 61.0
26.185880660 38.0
26.219303197 58.0
26.252725734 53.0
26.286148271 59.0
26.319570809 47.0
26.352993346 55.0
26.386415883 59.0
26.419838420 55.0
26.453260958 55.0
26.486683495 68.0
26.520106032 60.0
26.553528569 65.0
26.586951107 50.0
26.620373644 73.0
26.653796181 44.0
26.687218718 44.0
26.720641256 46.0
26.754063793 59.0
26.787486330 47.0
26.820908867 63.0
26.854331405 52.0
26.887753942 52.0
26.921176479 45.0
26.954599016 48.0
26.988021554 46.0
27.021444091 59.0
27.054866628 62.0
27.088289165 51.0
27.121711703 55.0
27.155134240 55.0
27.188556777 37.0
27.221979314 41.0
27.255401852 55.0
27.288824389 61.0
27.322246926 57.0
27.355669463 60.0
27.389092000 48.0
27.422514538 58.0
27.455937075 49.0
27.489359612 51.0
27.522782149 40.0
27.556204687 60.0
27.589627224 62.0
27.623049761 57.0
27.656472298 53.0
27.689894836 51.0
27.723317373 63.0
27.756739910 47.0
27.790162447 58.0
27.823584985 40.0
27.857007522 31.0
27.890430059 54.0
27.923852596 40.0
27.957275134 58.0
27.990697671 50.0
28.024120208 58.0
28.057542745 40.0
28.090965283 53.0
28.124387820 45.0
28.157810357 51.0
28.191232894 52.0
28.224655432 58.0
28.258077969 68.0
28.291500506 43.0
28.324923043 54.0
28.358345580 50.0
28.391768118 52.0
28.425190655 60.0
28.458613192 61.0
28.492035729 53.0
28.525458267 52.0
28.558880804 48.0
28.592303341 58.0
28.625725878 48.0
28.659148416 54.0
28.692570953 59.0
28.725993490 47.0
28.759416027 52.0
28.792838565 61.0
28.826261102 51.0
28.859683639 53.0
28.893106176 58.0
28.926528714 33.0
28.959951251 48.0
28.993373788 53.0
29.026796325 55.0
29.060218863 38.0
29.093641400 52.0
29.127063937 50.0
29.160486474 45.0
29.193909012 46.0
29.227331549 52.0
29.260754086 50.0
29.294176623 62.0
29.327599161 43.0
29.361021698 47.0
29.394444235 47.0
29.427866772 57.0
29.461289309 49.0
29.494711847 44.0
29.528134384 61.0
29.561556921 38.0
29.594979458 60.0
29.628401996 63.0
29.661824533 63.0
29.695247070 51.0
29.728669607 63.0
29.762092145 54.0
29.795514682 48.0
29.828937219 48.0
29.862359756 66.0
29.895782294 45.0
29.929204831 51.0
29.962627368 60.0
29.996049905 62.0
30.029472443 47.0
30.062894980 52.0
30.096317517 61.0
30.129740054 49.0
30.163162592 60.0
30.196585129 53.0
30.230007666 49.0
30.263430203 53.0
30.296852741 62.0
30.330275278 57.0
30.363697815 61.0
30.397120352 55.0
30.430542889 77.0
30.463965427 53.0
30.497387964 62.0
30.530810501 44.0
30.564233038 62.0
30.597655576 58.0
30.631078113 50.0
30.664500650 68.0
30.697923187 47.0
30.731345725 63.0
30.764768262 40.0
30.798190799 57.0
30.831613336 63.0
30.865035874 63.0
30.898458411 51.0
30.931880948 53.0
30.965303485 61.0
30.998726023 69.0
31.032148560 71.0
31.065571097 60.0
31.098993634 74.0
31.132416172 68.0
31.165838709 69.0
31.199261246 57.0
31.232683783 73.0
31.266106321 79.0
31.299528858 64.0
31.332951395 72.0
31.366373932 51.0
31.399796470 61.0
31.433219007 53.0
31.466641544 78.0
31.500064081 71.0
31.533486618 73.0
31.566909156 82.0
31.600331693 62.0
31.633754230 65.0
31.667176767 83.0
31.700599305 69.0
31.734021842 86.0
31.767444379 58.0
31.800866916 64.0
31.834289454 86.0
31.867711991 69.0
31.901134528 71.0
31.934557065 67.0
31.967979603 101.0
32.001402140 91.0
32.034824677 78.0
32.068247214 64.0
32.101669752 80.0
32.135092289 80.0
32.168514826 87.0
32.201937363 85.0
32.235359901 79.0
32.268782438 72.0
32.302204975 82.0
32.335627512 78.0
32.369050050 79.0
32.402472587 78.0
32.435895124 69.0
32.469317661 99.0
32.502740198 117.0
32.536162736 99.0
32.569585273 74.0
32.603007810 83.0
32.636430347 104.0
32.669852885 86.0
32.703275422 95.0
32.736697959 97.0
32.770120496 80.0
32.803543034 95.0
32.836965571 85.0
32.870388108 72.0
32.903810645 77.0
32.937233183 92.0
32.970655720 77.0
33.004078257 73.0
33.037500794 71.0
33.070923332 75.0
33.104345869 82.0
33.137768406 75.0
33.171190943 92.0
33.204613481 94.0
33.238036018 82.0
33.271458555 78.0
33.304881092 71.0
33.338303630 90.0
33.371726167 85.0
33.405148704 78.0
33.438571241 73.0
33.471993779 76.0
33.505416316 82.0
33.538838853 108.0
33.572261390 64.0
33.605683927 105.0
33.639106465 92.0
33.672529002 82.0
33.705951539 88.0
33.739374076 88.0
33.772796614 77.0
33.806219151 76.0
33.839641688 88.0
33.873064225 85.0
33.906486763 97.0
33.939909300 82.0
33.973331837 77.0
34.006754374 101.0
34.040176912 99.0
34.073599449 90.0
34.107021986 78.0
34.140444523 92.0
34.173867061 95.0
34.207289598 77.0
34.240712135 68.0
34.274134672 63.0
34.307557210 86.0
34.340979747 85.0
34.374402284 85.0
34.407824821 78.0
34.441247359 65.0
34.474669896 103.0
34.508092433 67.0
34.541514970 83.0
34.574937507 69.0
34.608360045 78.0
34.641782582 72.0
34.675205119 74.0
34.708627656 76.0
34.742050194 68.0
34.775472731 75.0
34.808895268 82.0
34.842317805 87.0
34.875740343 74.0
34.909162880 78.0
34.942585417 62.0
34.976007954 68.0
35.009430492 77.0
35.042853029 81.0
35.076275566 77.0
35.109698103 66.0
35.143120641 86.0
35.176543178 77.0
35.209965715 71.0
35.243388252 68.0
35.276810790 83.0
35.310233327 76.0
35.343655864 60.0
35.377078401 72.0
35.410500939 75.0
35.443923476 64.0
35.477346013 66.0
35.510768550 68.0
35.544191088 60.0
35.577613625 60.0
35.611036162 66.0
35.644458699 62.0
35.677881236 58.0
35.711303774 53.0
35.744726311 62.0
35.778148848 57.0
35.811571385 63.0
35.844993923 58.0
35.878416460 74.0
35.911838997 65.0
35.945261534 65.0
35.978684072 46.0
36.012106609 65.0
36.045529146 60.0
36.078951683 66.0
36.112374221 74.0
36.145796758 60.0
36.179219295 59.0
36.212641832 63.0
36.246064370 57.0
36.279486907 59.0
36.312909444 67.0
36.346331981 67.0
36.379754519 52.0
36.413177056 61.0
36.446599593 54.0
36.480022130 57.0
36.513444668 82.0
36.546867205 58.0
36.580289742 57.0
36.613712279 77.0
36.647134816 68.0
36.680557354 57.0
36.713979891 59.0
36.747402428 65.0
36.780824965 62.0
36.814247503 60.0
36.847670040 52.0
36.881092577 47.0
36.914515114 53.0
36.947937652 53.0
36.981360189 54.0
37.014782726 64.0
37.048205263 47.0
37.081627801 49.0
37.115050338 58.0
37.148472875 64.0
37.181895412 41.0
37.215317950 45.0
37.248740487 55.0
37.282163024 71.0
37.315585561 60.0
37.349008099 59.0
37.382430636 43.0
37.415853173 65.0
37.449275710 44.0
37.482698248 35.0
37.516120785 43.0
37.549543322 71.0
37.582965859 59.0
37.616388397 50.0
37.649810934 53.0
37.683233471 59.0
37.716656008 36.0
37.750078545 57.0
37.783501083 44.0
37.816923620 59.0
37.850346157 58.0
37.883768694 57.0
37.917191232 54.0
37.950613769 53.0
37.984036306 57.0
38.017458843 58.0
38.050881381 53.0
38.084303918 73.0
38.117726455 72.0
38.151148992 69.0
38.184571530 54.0
38.217994067 65.0
38.251416604 69.0
38.284839141 68.0
38.318261679 58.0
38.351684216 66.0
38.385106753 61.0
38.418529290 65.0
38.451951828 47.0
38.485374365 62.0
38.518796902 66.0
38.552219439 53.0
38.585641977 66.0
38.619064514 57.0
38.652487051 65.0
38.685909588 73.0
38.719332125 62.0
38.752754663 64.0
38.786177200 77.0
38.819599737 67.0
38.853022274 77.0
38.886444812 68.0
38.919867349 79.0
38.953289886 89.0
38.986712423 81.0
39.020134961 83.0
39.053557498 78.0
39.086980035 75.0
39.120402572 82.0
39.153825110 80.0
39.187247647 86.0
39.220670184 76.0
39.254092721 78.0
39.287515259 77.0
39.320937796 92.0
39.354360333 90.0
39.387782870 81.0
39.421205408 88.0
39.454627945 89.0
39.488050482 96.0
39.521473019 86.0
39.554895557 103.0
39.588318094 118.0
39.621740631 117.0
39.655163168 124.0
39.688585706 114.0
39.722008243 90.0
39.755430780 108.0
39.788853317 107.0
39.822275854 114.0
39.855698392 120.0
39.889120929 121.0
39.922543466 142.0
39.955966003 111.0
39.989388541 109.0
40.022811078 119.0
40.056233615 131.0
40.089656152 114.0
40.123078690 124.0
40.156501227 127.0
40.189923764 136.0
40.223346301 165.0
40.256768839 161.0
40.290191376 152.0
40.323613913 198.0
40.357036450 146.0
40.390458988 177.0
40.423881525 178.0
40.457304062 181.0
40.490726599 203.0
40.524149137 172.0
40.557571674 179.0
40.590994211 207.0
40.624416748 192.0
40.657839286 203.0
40.691261823 174.0
40.724684360 201.0
40.758106897 220.0
40.791529434 211.0
40.824951972 231.0
40.858374509 228.0
40.891797046 208.0
40.925219583 212.0
40.958642121 220.0
40.992064658 278.0
41.025487195 275.0
41.058909732 322.0
41.092332270 327.0
41.125754807 320.0
41.159177344 359.0
41.192599881 371.0
41.226022419 369.0
41.259444956 448.0
41.292867493 411.0
41.326290030 479.0
41.359712568 508.0
41.393135105 691.0
41.426557642 953.0
41.459980179 1393.0
41.493402717 1336.0
41.526825254 1275.0
41.560247791 1374.0
41.593670328 1411.0
41.627092866 1519.0
41.660515403 1698.0
41.693937940 1768.0
41.727360477 1900.0
41.760783015 1979.0
41.794205552 2134.0
41.827628089 2333.0
41.861050626 2459.0
41.894473163 2553.0
41.927895701 2672.0
41.961318238 2933.0
41.994740775 2976.0
42.028163312 3157.0
42.061585850 3287.0
42.095008387 3468.0
42.128430924 3718.0
42.161853461 3953.0
42.195275999 4083.0
42.228698536 4243.0
42.262121073 4333.0
42.295543610 4453.0
42.328966148 4671.0
42.362388685 4785.0
42.395811222 4868.0
42.429233759 4934.0
42.462656297 5096.0
42.496078834 5187.0
42.529501371 5513.0
42.562923908 5776.0
42.596346446 6212.0
42.629768983 6760.0
42.663191520 7627.0
42.696614057 8782.0
42.730036595 12470.0
42.763459132 18867.0
42.796881669 22586.0
42.830304206 25840.0
42.863726743 39632.0
42.897149281 85508.0
42.930571818 234919.0
42.963994355 661714.0
42.997416892 424691.0
43.030839430 161553.0
43.064261967 372774.0
43.097684504 441278.0
43.131107041 102715.0
43.164529579 36338.0
43.197952116 20805.0
43.231374653 14525.0
43.264797190 10800.0
43.298219728 8396.0
43.331642265 7158.0
43.365064802 6048.0
43.398487339 5296.0
43.431909877 4695.0
43.465332414 4262.0
43.498754951 3848.0
43.532177488 3511.0
43.565600026 3296.0
43.599022563 3161.0
43.632445100 2951.0
43.665867637 2844.0
43.699290175 2602.0
43.732712712 2286.0
43.766135249 2244.0
43.799557786 2087.0
43.832980324 2055.0
43.866402861 1882.0
43.899825398 1832.0
43.933247935 1666.0
43.966670472 1593.0
44.000093010 1587.0
44.033515547 1456.0
44.066938084 1399.0
44.100360621 1337.0
44.133783159 1219.0
44.167205696 1164.0
44.200628233 1078.0
44.234050770 1006.0
44.267473308 994.0
44.300895845 945.0
44.334318382 916.0
44.367740919 820.0
44.401163457 775.0
44.434585994 770.0
44.468008531 683.0
44.501431068 708.0
44.534853606 638.0
44.568276143 677.0
44.601698680 616.0
44.635121217 523.0
44.668543755 535.0
44.701966292 473.0
44.735388829 445.0
44.768811366 415.0
44.802233904 416.0
44.835656441 367.0
44.869078978 325.0
44.902501515 362.0
44.935924052 313.0
44.969346590 316.0
45.002769127 248.0
45.036191664 292.0
45.069614201 261.0
45.103036739 230.0
45.136459276 249.0
45.169881813 238.0
45.203304350 206.0
45.236726888 203.0
45.270149425 173.0
45.303571962 198.0
45.336994499 146.0
45.370417037 183.0
45.403839574 157.0
45.437262111 166.0
45.470684648 138.0
45.504107186 166.0
45.537529723 149.0
45.570952260 169.0
45.604374797 128.0
45.637797335 122.0
45.671219872 124.0
45.704642409 115.0
45.738064946 124.0
45.771487484 119.0
45.804910021 108.0
45.838332558 102.0
45.871755095 106.0
45.905177633 96.0
45.938600170 107.0
45.972022707 107.0
46.005445244 96.0
46.038867781 94.0
46.072290319 93.0
46.105712856 85.0
46.139135393 96.0
46.172557930 95.0
46.205980468 76.0
46.239403005 99.0
46.272825542 90.0
46.306248079 109.0
46.339670617 97.0
46.373093154 95.0
46.406515691 120.0
46.439938228 118.0
46.473360766 102.0
46.506783303 93.0
46.540205840 104.0
46.573628377 75.0
46.607050915 86.0
46.640473452 65.0
46.673895989 73.0
46.707318526 68.0
46.740741064 74.0
46.774163601 55.0
46.807586138 67.0
46.841008675 73.0
46.874431213 63.0
46.907853750 61.0
46.941276287 71.0
46.974698824 87.0
47.008121362 93.0
47.041543899 71.0
47.074966436 80.0
47.108388973 69.0
47.141811510 74.0
47.175234048 58.0
47.208656585 52.0
47.242079122 53.0
47.275501659 47.0
47.308924197 57.0
47.342346734 55.0
47.375769271 36.0
47.409191808 37.0
47.442614346 48.0
47.476036883 31.0
47.509459420 49.0
47.542881957 46.0
47.576304495 40.0
47.609727032 46.0
47.643149569 44.0
47.676572106 43.0
47.709994644 21.0
47.743417181 46.0
47.776839718 38.0
47.810262255 36.0
47.843684793 37.0
47.877107330 54.0
47.910529867 35.0
47.943952404 45.0
47.977374942 38.0
48.010797479 39.0
48.044220016 33.0
48.077642553 55.0
48.111065090 33.0
48.144487628 34.0
48.177910165 37.0
48.211332702 32.0
48.244755239 32.0
48.278177777 29.0
48.311600314 33.0
48.345022851 37.0
48.378445388 35.0
48.411867926 35.0
48.445290463 22.0
48.478713000 31.0
48.512135537 27.0
48.545558075 40.0
48.578980612 31.0
48.612403149 25.0
48.645825686 26.0
48.679248224 33.0
48.712670761 27.0
48.746093298 26.0
48.779515835 27.0
48.812938373 26.0
48.846360910 23.0
48.879783447 24.0
48.913205984 32.0
48.946628522 32.0
48.980051059 32.0
49.013473596 32.0
49.046896133 25.0
49.080318671 37.0
49.113741208 25.0
49.147163745 19.0
49.180586282 27.0
49.214008819 44.0
49.247431357 20.0
49.280853894 20.0
49.314276431 13.0
49.347698968 27.0
49.381121506 32.0
49.414544043 24.0
49.447966580 30.0
49.481389117 22.0
49.514811655 24.0
49.548234192 27.0
49.581656729 21.0
49.615079266 27.0
49.648501804 27.0
49.681924341 23.0
49.715346878 23.0
49.748769415 20.0
49.782191953 17.0
49.815614490 22.0
49.849037027 20.0
49.882459564 19.0
49.915882102 27.0
49.949304639 16.0
49.982727176 26.0
50.016149713 22.0
50.049572251 16.0
50.082994788 21.0
50.116417325 29.0
50.149839862 32.0
50.183262399 21.0
50.216684937 22.0
50.250107474 22.0
50.283530011 21.0
50.316952548 17.0
50.350375086 19.0
50.383797623 20.0
50.417220160 27.0
50.450642697 21.0
50.484065235 24.0
50.517487772 18.0
50.550910309 13.0
50.584332846 23.0
50.617755384 31.0
50.651177921 22.0
50.684600458 19.0
50.718022995 25.0
50.751445533 17.0
50.784868070 17.0
50.818290607 15.0
50.851713144 16.0
50.885135682 25.0
50.918558219 21.0
50.951980756 23.0
50.985403293 12.0
51.018825831 25.0
51.052248368 25.0
51.085670905 17.0
51.119093442 27.0
51.152515980 27.0
51.185938517 24.0
51.219361054 21.0
51.252783591 19.0
51.286206128 16.0
51.319628666 19.0
51.353051203 13.0
51.386473740 23.0
51.419896277 20.0
51.453318815 20.0
51.486741352 19.0
51.520163889 8.0
51.553586426 26.0
51.587008964 19.0
51.620431501 21.0
51.653854038 19.0
51.687276575 20.0
51.720699113 15.0
51.754121650 25.0
51.787544187 22.0
51.820966724 23.0
51.854389262 16.0
51.887811799 18.0
51.921234336 13.0
51.954656873 25.0
51.988079411 16.0
52.021501948 21.0
52.054924485 19.0
52.088347022 24.0
52.121769560 13.0
52.155192097 17.0
52.188614634 19.0
52.222037171 25.0
52.255459708 11.0
52.288882246 12.0
52.322304783 15.0
52.355727320 16.0
52.389149857 16.0
52.422572395 9.0
52.455994932 13.0
52.489417469 15.0
52.522840006 11.0
52.556262544 8.0
52.589685081 20.0
52.623107618 17.0
52.656530155 9.0
52.689952693 19.0
52.723375230 18.0
52.756797767 18.0
52.790220304 12.0
52.823642842 13.0
52.857065379 12.0
52.890487916 18.0
52.923910453 23.0
52.957332991 13.0
52.990755528 19.0
53.024178065 22.0
53.057600602 26.0
53.091023140 12.0
53.124445677 12.0
53.157868214 16.0
53.191290751 8.0
53.224713289 11.0
53.258135826 19.0
53.291558363 16.0
53.324980900 16.0
53.358403437 7.0
53.391825975 18.0
53.425248512 12.0
53.458671049 12.0
53.492093586 19.0
53.525516124 13.0
53.558938661 6.0
53.592361198 16.0
53.625783735 13.0
53.659206273 10.0
53.692628810 16.0
53.726051347 16.0
53.759473884 11.0
53.792896422 9.0
53.826318959 12.0
53.859741496 16.0
53.893164033 8.0
53.926586571 17.0
53.960009108 16.0
53.993431645 13.0
54.026854182 22.0
54.060276720 7.0
54.093699257 9.0
54.127121794 16.0
54.160544331 19.0
54.193966869 17.0
54.227389406 19.0
54.260811943 11.0
54.294234480 18.0
54.327657017 21.0
54.361079555 15.0
54.394502092 21.0
54.427924629 20.0
54.461347166 12.0
54.494769704 16.0
54.528192241 16.0
54.561614778 15.0
54.595037315 16.0
54.628459853 18.0
54.661882390 15.0
54.695304927 16.0
54.728727464 10.0
54.762150002 10.0
54.795572539 17.0
54.828995076 11.0
54.862417613 10.0
54.895840151 15.0
54.929262688 12.0
54.962685225 20.0
54.996107762 15.0
55.029530300 17.0
55.062952837 16.0
55.096375374 16.0
55.129797911 23.0
55.163220449 15.0
55.196642986 16.0
55.230065523 13.0
55.263488060 6.0
55.296910598 18.0
55.330333135 19.0
55.363755672 18.0
55.397178209 10.0
55.430600746 13.0
55.464023284 17.0
55.497445821 19.0
55.530868358 12.0
55.564290895 10.0
55.597713433 12.0
55.631135970 5.0
55.664558507 15.0
55.697981044 15.0
55.731403582 9.0
55.764826119 20.0
55.798248656 15.0
55.831671193 16.0
55.865093731 16.0
55.898516268 17.0
55.931938805 18.0
55.965361342 16.0
55.998783880 15.0
56.032206417 19.0
56.065628954 16.0
56.099051491 12.0
56.132474029 19.0
56.165896566 13.0
56.199319103 9.0
56.232741640 11.0
56.266164178 8.0
56.299586715 11.0
56.333009252 13.0
56.366431789 11.0
56.399854326 7.0
56.433276864 16.0
56.466699401 12.0
56.500121938 16.0
56.533544475 16.0
56.566967013 11.0
56.600389550 9.0
56.633812087 13.0
56.667234624 9.0
56.700657162 18.0
56.734079699 11.0
56.767502236 12.0
56.800924773 16.0
56.834347311 16.0
56.867769848 10.0
56.901192385 12.0
56.934614922 11.0
56.968037460 9.0
57.001459997 12.0
57.034882534 16.0
57.068305071 10.0
57.101727609 10.0
57.135150146 12.0
57.168572683 10.0
57.201995220 8.0
57.235417758 8.0
57.268840295 12.0
57.302262832 10.0
57.335685369 13.0
57.369107907 18.0
57.402530444 11.0
57.435952981 15.0
57.469375518 18.0
57.502798055 13.0
57.536220593 9.0
57.569643130 11.0
57.603065667 15.0
57.636488204 11.0
57.669910742 11.0
57.703333279 13.0
57.736755816 16.0
57.770178353 12.0
57.803600891 13.0
57.837023428 9.0
57.870445965 13.0
57.903868502 7.0
57.937291040 13.0
57.970713577 16.0
58.004136114 11.0
58.037558651 12.0
58.070981189 12.0
58.104403726 15.0
58.137826263 12.0
58.171248800 12.0
58.204671338 7.0
58.238093875 17.0
58.271516412 16.0
58.304938949 21.0
58.338361487 8.0
58.371784024 19.0
58.405206561 9.0
58.438629098 16.0
58.472051635 9.0
58.505474173 10.0
58.538896710 15.0
58.572319247 7.0
58.605741784 13.0
58.639164322 17.0
58.672586859 9.0
58.706009396 15.0
58.739431933 16.0
58.772854471 11.0
58.806277008 11.0
58.839699545 17.0
58.873122082 10.0
58.906544620 10.0
58.939967157 16.0
58.973389694 11.0
59.006812231 9.0
59.040234769 15.0
59.073657306 17.0
59.107079843 10.0
59.140502380 13.0
59.173924918 18.0
59.207347455 7.0
59.240769992 10.0
59.274192529 8.0
59.307615067 13.0
59.341037604 10.0
59.374460141 10.0
59.407882678 15.0
59.441305216 17.0
59.474727753 17.0
59.508150290 21.0
59.541572827 11.0
59.574995364 6.0
59.608417902 12.0
59.641840439 10.0
59.675262976 17.0
59.708685513 10.0
59.742108051 13.0
59.775530588 9.0
59.808953125 17.0
59.842375662 16.0
59.875798200 15.0
59.909220737 13.0
59.942643274 7.0
59.976065811 12.0
60.009488349 12.0
60.042910886 22.0
60.076333423 17.0
60.109755960 11.0
60.143178498 17.0
60.176601035 6.0
60.210023572 12.0
60.243446109 21.0
60.276868647 9.0
60.310291184 7.0
60.343713721 17.0
60.377136258 9.0
60.410558796 15.0
60.443981333 20.0
60.477403870 12.0
60.510826407 19.0
60.544248944 7.0
60.577671482 15.0
60.611094019 10.0
60.644516556 7.0
60.677939093 13.0
60.711361631 6.0
60.744784168 11.0
60.778206705 6.0
60.811629242 17.0
60.845051780 10.0
60.878474317 15.0
60.911896854 12.0
60.945319391 15.0
60.978741929 10.0
61.012164466 13.0
61.045587003 15.0
61.079009540 10.0
61.112432078 6.0
61.145854615 8.0
61.179277152 17.0
61.212699689 9.0
61.246122227 13.0
61.279544764 11.0
61.312967301 12.0
61.346389838 12.0
61.379812376 17.0
61.413234913 9.0
61.446657450 12.0
61.480079987 17.0
61.513502525 9.0
61.546925062 11.0
61.580347599 15.0
61.613770136 8.0
61.647192673 10.0
61.680615211 11.0
61.714037748 19.0
61.747460285 6.0
61.780882822 12.0
61.814305360 11.0
61.847727897 11.0
61.881150434 20.0
61.914572971 12.0
61.947995509 13.0
61.981418046 2.0
62.014840583 18.0
62.048263120 12.0
62.081685658 8.0
62.115108195 15.0
62.148530732 10.0
62.181953269 9.0
62.215375807 12.0
62.248798344 22.0
62.282220881 8.0
62.315643418 17.0
62.349065956 6.0
62.382488493 11.0
62.415911030 21.0
62.449333567 17.0
62.482756105 23.0
62.516178642 12.0
62.549601179 18.0
62.583023716 11.0
62.616446253 5.0
62.649868791 11.0
62.683291328 6.0
62.716713865 15.0
62.750136402 7.0
62.783558940 7.0
62.816981477 8.0
62.850404014 8.0
62.883826551 12.0
62.917249089 11.0
62.950671626 8.0
62.984094163 12.0
63.017516700 16.0
63.050939238 13.0
63.084361775 16.0
63.117784312 15.0
63.151206849 13.0
63.184629387 17.0
63.218051924 11.0
63.251474461 12.0
63.284896998 18.0
63.318319536 12.0
63.351742073 8.0
63.385164610 10.0
63.418587147 10.0
63.452009685 15.0
63.485432222 11.0
63.518854759 13.0
63.552277296 15.0
63.585699834 12.0
63.619122371 11.0
63.652544908 11.0
63.685967445 17.0
63.719389982 13.0
63.752812520 11.0
63.786235057 10.0
63.819657594 12.0
63.853080131 4.0
63.886502669 10.0
63.919925206 7.0
63.953347743 16.0
63.986770280 13.0
64.020192818 15.0
64.053615355 8.0
64.087037892 18.0
64.120460429 13.0
64.153882967 8.0
64.187305504 9.0
64.220728041 12.0
64.254150578 9.0
64.287573116 10.0
64.320995653 13.0
64.354418190 12.0
64.387840727 15.0
64.421263265 12.0
64.454685802 10.0
64.488108339 13.0
64.521530876 12.0
64.554953414 9.0
64.588375951 12.0
64.621798488 15.0
64.655221025 11.0
64.688643562 13.0
64.722066100 17.0
64.755488637 7.0
64.788911174 9.0
64.822333711 11.0
64.855756249 7.0
64.889178786 19.0
64.922601323 7.0
64.956023860 10.0
64.989446398 6.0
65.022868935 13.0
65.056291472 8.0
65.089714009 15.0
65.123136547 7.0
65.156559084 16.0
65.189981621 16.0
65.223404158 12.0
65.256826696 11.0
65.290249233 9.0
65.323671770 15.0
65.357094307 9.0
65.390516845 11.0
65.423939382 15.0
65.457361919 11.0
65.490784456 7.0
65.524206994 13.0
65.557629531 11.0
65.591052068 12.0
65.624474605 11.0
65.657897143 13.0
65.691319680 10.0
65.724742217 13.0
65.758164754 5.0
65.791587291 9.0
65.825009829 6.0
65.858432366 12.0
65.891854903 7.0
65.925277440 7.0
65.958699978 16.0
65.992122515 13.0
66.025545052 12.0
66.058967589 15.0
66.092390127 11.0
66.125812664 10.0
66.159235201 11.0
66.192657738 16.0
66.226080276 5.0
66.259502813 13.0
66.292925350 9.0
66.326347887 9.0
66.359770425 17.0
66.393192962 12.0
66.426615499 11.0
66.460038036 8.0
66.493460574 11.0
66.526883111 18.0
66.560305648 17.0
66.593728185 6.0
66.627150723 10.0
66.660573260 13.0
66.693995797 11.0
66.727418334 3.0
66.760840871 9.0
66.794263409 7.0
66.827685946 9.0
66.861108483 12.0
66.894531020 17.0
66.927953558 8.0
66.961376095 19.0
66.994798632 8.0
67.028221169 10.0
67.061643707 12.0
67.095066244 12.0
67.128488781 8.0
67.161911318 7.0
67.195333856 7.0
67.228756393 16.0
67.262178930 9.0
67.295601467 9.0
67.329024005 9.0
67.362446542 10.0
67.395869079 17.0
67.429291616 7.0
67.462714154 8.0
67.496136691 9.0
67.529559228 7.0
67.562981765 11.0
67.596404303 10.0
67.629826840 11.0
67.663249377 11.0
67.696671914 8.0
67.730094452 7.0
67.763516989 12.0
67.796939526 9.0
67.830362063 11.0
67.863784600 13.0
67.897207138 9.0
67.930629675 10.0
67.964052212 11.0
67.997474749 10.0
68.030897287 3.0
68.064319824 7.0
68.097742361 4.0
68.131164898 16.0
68.164587436 12.0
68.198009973 17.0
68.231432510 12.0
68.264855047 7.0
68.298277585 9.0
68.331700122 15.0
68.365122659 15.0
68.398545196 8.0
68.431967734 8.0
68.465390271 15.0
68.498812808 9.0
68.532235345 7.0
68.565657883 13.0
68.599080420 9.0
68.632502957 11.0
68.665925494 8.0
68.699348032 6.0
68.732770569 13.0
68.766193106 10.0
68.799615643 18.0
68.833038180 13.0
68.866460718 10.0
68.899883255 9.0
68.933305792 9.0
68.966728329 7.0
69.000150867 7.0
69.033573404 15.0
69.066995941 8.0
69.100418478 16.0
69.133841016 12.0
69.167263553 10.0
69.200686090 15.0
69.234108627 8.0
69.267531165 10.0
69.300953702 7.0
69.334376239 9.0
69.367798776 6.0
69.401221314 13.0
69.434643851 6.0
69.468066388 5.0
69.501488925 6.0
69.534911463 13.0
69.568334000 11.0
69.601756537 12.0
69.635179074 8.0
69.668601612 11.0
69.702024149 17.0
69.735446686 7.0
69.768869223 13.0
69.802291761 16.0
69.835714298 12.0
69.869136835 8.0
69.902559372 10.0
69.935981909 8.0
69.969404447 13.0
70.002826984 13.0
70.036249521 19.0
70.069672058 9.0
70.103094596 11.0
70.136517133 9.0
70.169939670 11.0
70.203362207 16.0
70.236784745 12.0
70.270207282 4.0
70.303629819 9.0
70.337052356 15.0
70.370474894 18.0
70.403897431 17.0
70.437319968 5.0
70.470742505 17.0
70.504165043 9.0
70.537587580 7.0
70.571010117 10.0
70.604432654 17.0
70.637855192 9.0
70.671277729 13.0
70.704700266 7.0
70.738122803 11.0
70.771545341 4.0
70.804967878 8.0
70.838390415 9.0
70.871812952 22.0
70.905235489 8.0
70.938658027 9.0
70.972080564 20.0
71.005503101 6.0
71.038925638 15.0
71.072348176 19.0
71.105770713 8.0
71.139193250 15.0
71.172615787 8.0
71.206038325 10.0
71.239460862 12.0
71.272883399 20.0
71.306305936 11.0
71.339728474 11.0
71.373151011 9.0
71.406573548 9.0
71.439996085 12.0
71.473418623 8.0
71.506841160 10.0
71.540263697 21.0
71.573686234 10.0
71.607108772 10.0
71.640531309 12.0
71.673953846 6.0
71.707376383 6.0
71.740798921 9.0
71.774221458 11.0
71.807643995 15.0
71.841066532 16.0
71.874489070 9.0
71.907911607 10.0
71.941334144 12.0
71.974756681 11.0
72.008179218 8.0
72.041601756 12.0
72.075024293 6.0
72.108446830 7.0
72.141869367 12.0
72.175291905 8.0
72.208714442 11.0
72.242136979 19.0
72.275559516 17.0
72.308982054 12.0
72.342404591 11.0
72.375827128 9.0
72.409249665 9.0
72.442672203 11.0
72.476094740 10.0
72.509517277 17.0
72.542939814 9.0
72.576362352 18.0
72.609784889 6.0
72.643207426 9.0
72.676629963 19.0
72.710052501 21.0
72.743475038 10.0
72.776897575 6.0
72.810320112 9.0
72.843742650 9.0
72.877165187 15.0
72.910587724 12.0
72.944010261 13.0
72.977432798 18.0
73.010855336 18.0
73.044277873 11.0
73.077700410 12.0
73.111122947 8.0
73.144545485 12.0
73.177968022 11.0
73.211390559 12.0
73.244813096 12.0
73.278235634 9.0
73.311658171 10.0
73.345080708 10.0
73.378503245 18.0
73.411925783 13.0
73.445348320 5.0
73.478770857 19.0
73.512193394 11.0
73.545615932 10.0
73.579038469 9.0
73.612461006 8.0
73.645883543 7.0
73.679306081 11.0
73.712728618 12.0
73.746151155 11.0
73.779573692 9.0
73.812996230 15.0
73.846418767 11.0
73.879841304 5.0
73.913263841 13.0
73.946686379 7.0
73.980108916 18.0
74.013531453 10.0
74.046953990 17.0
74.080376527 17.0
74.113799065 13.0
74.147221602 7.0
74.180644139 5.0
74.214066676 16.0
74.247489214 10.0
74.280911751 22.0
74.314334288 12.0
74.347756825 15.0
74.381179363 20.0
74.414601900 11.0
74.448024437 12.0
74.481446974 17.0
74.514869512 12.0
74.548292049 7.0
74.581714586 9.0
74.615137123 12.0
74.648559661 12.0
74.681982198 12.0
74.715404735 12.0
74.748827272 7.0
74.782249810 11.0
74.815672347 11.0
74.849094884 21.0
74.882517421 17.0
74.915939959 9.0
74.949362496 6.0
74.982785033 2.0
75.016207570 6.0
75.049630108 11.0
75.083052645 7.0
75.116475182 10.0
75.149897719 7.0
75.183320256 18.0
75.216742794 13.0
75.250165331 5.0
75.283587868 12.0
75.317010405 9.0
75.350432943 8.0
75.383855480 11.0
75.417278017 11.0
75.450700554 17.0
75.484123092 16.0
75.517545629 15.0
75.550968166 5.0
75.584390703 10.0
75.617813241 6.0
75.651235778 10.0
75.684658315 10.0
75.718080852 10.0
75.751503390 11.0
75.784925927 9.0
75.818348464 10.0
75.851771001 13.0
75.885193539 12.0
75.918616076 15.0
75.952038613 15.0
75.985461150 9.0
76.018883688 17.0
76.052306225 7.0
76.085728762 11.0
76.119151299 9.0
76.152573836 12.0
76.185996374 6.0
76.219418911 13.0
76.252841448 7.0
76.286263985 16.0
76.319686523 13.0
76.353109060 9.0
76.386531597 7.0
76.419954134 7.0
76.453376672 13.0
76.486799209 9.0
76.520221746 17.0
76.553644283 13.0
76.587066821 13.0
76.620489358 9.0
76.653911895 17.0
76.687334432 7.0
76.720756970 9.0
76.754179507 10.0
76.787602044 15.0
76.821024581 13.0
76.854447119 8.0
76.887869656 15.0
76.921292193 23.0
76.954714730 9.0
76.988137268 9.0
77.021559805 10.0
77.054982342 16.0
77.088404879 5.0
77.121827417 9.0
77.155249954 5.0
77.188672491 10.0
77.222095028 11.0
77.255517565 8.0
77.288940103 10.0
77.322362640 7.0
77.355785177 8.0
77.389207714 13.0
77.422630252 11.0
77.456052789 11.0
77.489475326 15.0
77.522897863 11.0
77.556320401 6.0
77.589742938 23.0
77.623165475 9.0
77.656588012 11.0
77.690010550 6.0
77.723433087 11.0
77.756855624 12.0
77.790278161 7.0
77.823700699 12.0
77.857123236 10.0
77.890545773 9.0
77.923968310 7.0
77.957390848 9.0
77.990813385 7.0
78.024235922 3.0
78.057658459 15.0
78.091080997 8.0
78.124503534 8.0
78.157926071 13.0
78.191348608 11.0
78.224771145 12.0
78.258193683 9.0
78.291616220 10.0
78.325038757 9.0
78.358461294 8.0
78.391883832 11.0
78.425306369 15.0
78.458728906 21.0
78.492151443 12.0
78.525573981 10.0
78.558996518 16.0
78.592419055 9.0
78.625841592 13.0
78.659264130 11.0
78.692686667 8.0
78.726109204 13.0
78.759531741 10.0
78.792954279 10.0
78.826376816 10.0
78.859799353 8.0
78.893221890 16.0
78.926644428 12.0
78.960066965 7.0
78.993489502 6.0
79.026912039 13.0
79.060334577 12.0
79.093757114 8.0
79.127179651 13.0
79.160602188 9.0
79.194024726 12.0
79.227447263 12.0
79.260869800 10.0
79.294292337 5.0
79.327714874 11.0
79.361137412 11.0
79.394559949 9.0
79.427982486 9.0
79.461405023 13.0
79.494827561 10.0
79.528250098 10.0
79.561672635 10.0
79.595095172 7.0
79.628517710 13.0
79.661940247 10.0
79.695362784 11.0
79.728785321 10.0
79.762207859 11.0
79.795630396 6.0
79.829052933 6.0
79.862475470 8.0
79.895898008 10.0
79.929320545 11.0
79.962743082 16.0
79.996165619 10.0
80.029588157 12.0
80.063010694 9.0
80.096433231 16.0
80.129855768 7.0
80.163278306 12.0
80.196700843 11.0
80.230123380 12.0
80.263545917 10.0
80.296968454 10.0
80.330390992 9.0
80.363813529 9.0
80.397236066 10.0
80.430658603 13.0
80.464081141 18.0
80.497503678 11.0
80.530926215 20.0
80.564348752 10.0
80.597771290 9.0
80.631193827 8.0
80.664616364 12.0
80.698038901 12.0
80.731461439 8.0
80.764883976 12.0
80.798306513 10.0
80.831729050 2.0
80.865151588 12.0
80.898574125 10.0
80.931996662 9.0
80.965419199 4.0
80.998841737 15.0
81.032264274 11.0
81.065686811 9.0
81.099109348 15.0
81.132531886 4.0
81.165954423 10.0
81.199376960 9.0
81.232799497 11.0
81.266222035 11.0
81.299644572 12.0
81.333067109 12.0
81.366489646 12.0
81.399912183 17.0
81.433334721 11.0
81.466757258 11.0
81.500179795 11.0
81.533602332 13.0
81.567024870 12.0
81.600447407 10.0
81.633869944 6.0
81.667292481 6.0
81.700715019 8.0
81.734137556 17.0
81.767560093 11.0
81.800982630 11.0
81.834405168 6.0
81.867827705 9.0
81.901250242 12.0
81.934672779 11.0
81.968095317 7.0
82.001517854 22.0
82.034940391 5.0
82.068362928 12.0
82.101785466 11.0
82.135208003 9.0
82.168630540 12.0
82.202053077 12.0
82.235475615 8.0
82.268898152 12.0
82.302320689 24.0
82.335743226 10.0
82.369165763 17.0
82.402588301 10.0
82.436010838 18.0
82.469433375 13.0
82.502855912 11.0
82.536278450 5.0
82.569700987 10.0
82.603123524 19.0
82.636546061 10.0
82.669968599 12.0
82.703391136 9.0
82.736813673 13.0
82.770236210 12.0
82.803658748 15.0
82.837081285 9.0
82.870503822 17.0
82.903926359 12.0
82.937348897 7.0
82.970771434 16.0
83.004193971 13.0
83.037616508 10.0
83.071039046 10.0
83.104461583 16.0
83.137884120 19.0
83.171306657 12.0
83.204729195 18.0
83.238151732 3.0
83.271574269 18.0
83.304996806 11.0
83.338419344 6.0
83.371841881 11.0
83.405264418 8.0
83.438686955 7.0
83.472109492 9.0
83.505532030 8.0
83.538954567 12.0
83.572377104 12.0
83.605799641 20.0
83.639222179 10.0
83.672644716 13.0
83.706067253 13.0
83.739489790 16.0
83.772912328 16.0
83.806334865 13.0
83.839757402 7.0
83.873179939 10.0
83.906602477 9.0
83.940025014 10.0
83.973447551 12.0
84.006870088 10.0
84.040292626 10.0
84.073715163 11.0
84.107137700 4.0
84.140560237 6.0
84.173982775 10.0
84.207405312 10.0
84.240827849 23.0
84.274250386 10.0
84.307672924 19.0
84.341095461 19.0
84.374517998 13.0
84.407940535 20.0
84.441363072 18.0
84.474785610 18.0
84.508208147 10.0
84.541630684 10.0
84.575053221 9.0
84.608475759 6.0
84.641898296 15.0
84.675320833 12.0
84.708743370 8.0
84.742165908 16.0
84.775588445 9.0
84.809010982 15.0
84.842433519 12.0
84.875856057 18.0
84.909278594 6.0
84.942701131 18.0
84.976123668 16.0
85.009546206 13.0
85.042968743 18.0
85.076391280 10.0
85.109813817 18.0
85.143236355 17.0
85.176658892 17.0
85.210081429 15.0
85.243503966 17.0
85.276926504 18.0
85.310349041 24.0
85.343771578 13.0
85.377194115 15.0
85.410616653 13.0
85.444039190 15.0
85.477461727 18.0
85.510884264 9.0
85.544306801 15.0
85.577729339 20.0
85.611151876 23.0
85.644574413 17.0
85.677996950 17.0
85.711419488 7.0
85.744842025 18.0
85.778264562 19.0
85.811687099 17.0
85.845109637 18.0
85.878532174 17.0
85.911954711 22.0
85.945377248 12.0
85.978799786 16.0
86.012222323 12.0
86.045644860 10.0
86.079067397 12.0
86.112489935 16.0
86.145912472 16.0
86.179335009 17.0
86.212757546 19.0
86.246180084 15.0
86.279602621 13.0
86.313025158 15.0
86.346447695 15.0
86.379870233 11.0
86.413292770 16.0
86.446715307 18.0
86.480137844 20.0
86.513560381 17.0
86.546982919 20.0
86.580405456 17.0
86.613827993 17.0
86.647250530 12.0
86.680673068 26.0
86.714095605 22.0
86.747518142 22.0
86.780940679 13.0
86.814363217 17.0
86.847785754 16.0
86.881208291 20.0
86.914630828 20.0
86.948053366 15.0
86.981475903 17.0
87.014898440 20.0
87.048320977 15.0
87.081743515 9.0
87.115166052 17.0
87.148588589 18.0
87.182011126 18.0
87.215433664 24.0
87.248856201 25.0
87.282278738 21.0
87.315701275 18.0
87.349123813 15.0
87.382546350 16.0
87.415968887 24.0
87.449391424 13.0
87.482813962 20.0
87.516236499 17.0
87.549659036 19.0
87.583081573 21.0
87.616504110 23.0
87.649926648 23.0
87.683349185 17.0
87.716771722 21.0
87.750194259 23.0
87.783616797 18.0
87.817039334 17.0
87.850461871 25.0
87.883884408 23.0
87.917306946 18.0
87.950729483 24.0
87.984152020 13.0
88.017574557 16.0
88.050997095 22.0
88.084419632 25.0
88.117842169 18.0
88.151264706 13.0
88.184687244 18.0
88.218109781 32.0
88.251532318 20.0
88.284954855 31.0
88.318377393 13.0
88.351799930 25.0
88.385222467 22.0
88.418645004 21.0
88.452067542 20.0
88.485490079 22.0
88.518912616 26.0
88.552335153 19.0
88.585757690 22.0
88.619180228 24.0
88.652602765 22.0
88.686025302 15.0
88.719447839 20.0
88.752870377 18.0
88.786292914 26.0
88.819715451 23.0
88.853137988 29.0
88.886560526 19.0
88.919983063 23.0
88.953405600 19.0
88.986828137 30.0
89.020250675 21.0
89.053673212 23.0
89.087095749 19.0
89.120518286 24.0
89.153940824 25.0
89.187363361 24.0
89.220785898 34.0
89.254208435 20.0
89.287630973 19.0
89.321053510 31.0
89.354476047 29.0
89.387898584 24.0
89.421321122 22.0
89.454743659 31.0
89.488166196 31.0
89.521588733 29.0
89.555011271 33.0
89.588433808 21.0
89.621856345 35.0
89.655278882 32.0
89.688701419 26.0
89.722123957 24.0
89.755546494 44.0
89.788969031 33.0
89.822391568 23.0
89.855814106 33.0
89.889236643 45.0
89.922659180 61.0
89.956081717 71.0
89.989504255 97.0
90.022926792 88.0
90.056349329 102.0
90.089771866 81.0
90.123194404 94.0
90.156616941 77.0
90.190039478 76.0
90.223462015 85.0
90.256884553 89.0
90.290307090 92.0
90.323729627 85.0
90.357152164 66.0
90.390574702 89.0
90.423997239 86.0
90.457419776 83.0
90.490842313 88.0
90.524264851 82.0
90.557687388 76.0
90.591109925 100.0
90.624532462 96.0
90.657954999 108.0
90.691377537 108.0
90.724800074 95.0
90.758222611 115.0
90.791645148 115.0
90.825067686 129.0
90.858490223 124.0
90.891912760 118.0
90.925335297 151.0
90.958757835 119.0
90.992180372 132.0
91.025602909 101.0
91.059025446 113.0
91.092447984 142.0
91.125870521 110.0
91.159293058 125.0
91.192715595 157.0
91.226138133 133.0
91.259560670 135.0
91.292983207 130.0
91.326405744 139.0
91.359828282 129.0
91.393250819 125.0
91.426673356 149.0
91.460095893 158.0
91.493518431 152.0
91.526940968 137.0
91.560363505 144.0
91.593786042 156.0
91.627208580 160.0
91.660631117 170.0
91.694053654 189.0
91.727476191 178.0
91.760898728 205.0
91.794321266 204.0
91.827743803 202.0
91.861166340 174.0
91.894588877 176.0
91.928011415 193.0
91.961433952 207.0
91.994856489 205.0
92.028279026 202.0
92.061701564 236.0
92.095124101 206.0
92.128546638 217.0
92.161969175 212.0
92.195391713 242.0
92.228814250 269.0
92.262236787 260.0
92.295659324 236.0
92.329081862 268.0
92.362504399 277.0
92.395926936 258.0
92.429349473 296.0
92.462772011 298.0
92.496194548 311.0
92.529617085 289.0
92.563039622 302.0
92.596462160 262.0
92.629884697 299.0
92.663307234 291.0
92.696729771 348.0
92.730152308 316.0
92.763574846 300.0
92.796997383 368.0
92.830419920 336.0
92.863842457 347.0
92.897264995 330.0
92.930687532 350.0
92.964110069 373.0
92.997532606 423.0
93.030955144 373.0
93.064377681 424.0
93.097800218 420.0
93.131222755 463.0
93.164645293 525.0
93.198067830 475.0
93.231490367 484.0
93.264912904 524.0
93.298335442 582.0
93.331757979 692.0
93.365180516 696.0
93.398603053 796.0
93.432025591 922.0
93.465448128 1162.0
93.498870665 1393.0
93.532293202 1583.0
93.565715740 1606.0
93.599138277 1696.0
93.632560814 1652.0
93.665983351 1607.0
93.699405889 1678.0
93.732828426 1923.0
93.766250963 2110.0
93.799673500 2645.0
93.833096037 3337.0
93.866518575 4662.0
93.899941112 6631.0
93.933363649 10039.0
93.966786186 18315.0
94.000208724 39217.0
94.033631261 106805.0
94.067053798 184841.0
94.100476335 103017.0
94.133898873 41283.0
94.167321410 19826.0
94.200743947 12483.0
94.234166484 10543.0
94.267589022 12458.0
94.301011559 20731.0
94.334434096 47580.0
94.367856633 92551.0
94.401279171 70091.0
94.434701708 28858.0
94.468124245 12643.0
94.501546782 7221.0
94.534969320 4539.0
94.568391857 3405.0
94.601814394 2820.0
94.635236931 2174.0
94.668659469 1919.0
94.702082006 1557.0
94.735504543 1464.0
94.768927080 1252.0
94.802349617 1109.0
94.835772155 1088.0
94.869194692 924.0
94.902617229 839.0
94.936039766 800.0
94.969462304 695.0
95.002884841 659.0
95.036307378 665.0
95.069729915 625.0
95.103152453 559.0
95.136574990 531.0
95.169997527 537.0
95.203420064 480.0
95.236842602 455.0
95.270265139 471.0
95.303687676 450.0
95.337110213 431.0
95.370532751 385.0
95.403955288 417.0
95.437377825 378.0
95.470800362 359.0
95.504222900 389.0
95.537645437 367.0
95.571067974 343.0
95.604490511 332.0
95.637913049 319.0
95.671335586 312.0
95.704758123 305.0
95.738180660 327.0
95.771603198 297.0
95.805025735 277.0
95.838448272 304.0
95.871870809 260.0
95.905293346 282.0
95.938715884 286.0
95.972138421 266.0
96.005560958 275.0
96.038983495 229.0
96.072406033 272.0
96.105828570 247.0
96.139251107 235.0
96.172673644 223.0
96.206096182 225.0
96.239518719 221.0
96.272941256 220.0
96.306363793 215.0
96.339786331 198.0
96.373208868 207.0
96.406631405 195.0
96.440053942 202.0
96.473476480 184.0
96.506899017 192.0
96.540321554 172.0
96.573744091 158.0
96.607166629 180.0
96.640589166 179.0
96.674011703 185.0
96.707434240 156.0
96.740856778 160.0
96.774279315 153.0
96.807701852 131.0
96.841124389 151.0
96.874546926 177.0
96.907969464 159.0
96.941392001 145.0
96.974814538 167.0
97.008237075 131.0
97.041659613 153.0
97.075082150 127.0
97.108504687 142.0
97.141927224 146.0
97.175349762 152.0
97.208772299 133.0
97.242194836 122.0
97.275617373 133.0
97.309039911 110.0
97.342462448 122.0
97.375884985 128.0
97.409307522 137.0
97.442730060 128.0
97.476152597 108.0
97.509575134 101.0
97.542997671 107.0
97.576420209 113.0
97.609842746 106.0
97.643265283 114.0
97.676687820 99.0
97.710110358 109.0
97.743532895 107.0
97.776955432 82.0
97.810377969 96.0
97.843800507 113.0
97.877223044 94.0
97.910645581 97.0
97.944068118 97.0
97.977490655 91.0
98.010913193 101.0
98.044335730 93.0
98.077758267 116.0
98.111180804 75.0
98.144603342 78.0
98.178025879 66.0
98.211448416 87.0
98.244870953 85.0
98.278293491 95.0
98.311716028 76.0
98.345138565 63.0
98.378561102 72.0
98.411983640 73.0
98.445406177 69.0
98.478828714 82.0
98.512251251 76.0
98.545673789 76.0
98.579096326 69.0
98.612518863 66.0
98.645941400 43.0
98.679363938 63.0
98.712786475 55.0
98.746209012 79.0
98.779631549 44.0
98.813054087 63.0
98.846476624 60.0
98.879899161 55.0
98.913321698 59.0
98.946744235 47.0
98.980166773 48.0
99.013589310 60.0
99.047011847 54.0
99.080434384 41.0
99.113856922 39.0
99.147279459 57.0
99.180701996 45.0
99.214124533 50.0
99.247547071 38.0
99.280969608 36.0
99.314392145 40.0
99.347814682 44.0
99.381237220 50.0
99.414659757 44.0
99.448082294 53.0
99.481504831 45.0
99.514927369 34.0
99.548349906 45.0
99.581772443 30.0
99.615194980 45.0
99.648617518 45.0
99.682040055 48.0
99.715462592 34.0
99.748885129 48.0
99.782307667 38.0
99.815730204 37.0
99.849152741 41.0
99.882575278 38.0
99.915997816 37.0
99.949420353 36.0
99.982842890 35.0
